Pic P Amplitude,Pic Q Amplitude,Pic R Amplitude,Pic S Amplitude,Pic T Amplitude,Pic P Centre,Pic Q Centre,Pic R Centre,Pic S Centre,Pic T Centre,Pic P Ecart-type,Pic Q Ecart-type,Pic R Ecart-type,Pic S Ecart-type,Pic T Ecart-type
24.0,-10.0,120.0,-14.0,-4.0,-1.3327968833411241,-0.4240717356085395,-0.09519977738150898,0.19905407997951885,0.46734436169104354,0.21817337746729437,0.9645714987402755,-0.4394840367288012,0.6396377231088216,0.32272282922538986
-2.0,-15.0,106.0,-15.0,42.0,-1.0596790476351745,-0.24338918055224879,0.04118893824730385,0.2958114655942716,1.7561465489077621,-0.010780629801455463,0.9875637149602492,0.450700211212958,0.6135368720873181,0.4331495533605366
0.0,-24.0,126.0,-21.0,37.0,-1.097847976889299,-0.2773110806675394,0.01139634578085813,0.269713516813634,1.7436409044712393,0.09999999999999862,0.7518342758008728,0.41835841866315204,0.6469883630154726,0.32779251874405657
48.0,13.0,155.0,1.0,51.0,-1.0816622807296503,-0.17497478070626693,0.1113475877221699,0.38971655702759467,1.8929089912768884,0.518118756314513,-0.018792288587123174,-0.7835832005158507,-1.4762496780562628e-15,0.5691707606658539
-7.0,-14.0,134.0,-5.0,41.0,-0.8032720171829322,-0.28177604791233746,0.029439288587855827,0.31542094915560126,1.938787434143098,0.1403593590074833,0.9121693174324847,-0.4363203930151811,0.765332766250252,0.7054019752085011
-14.0,-26.0,99.0,-29.0,-27.0,-1.3183726746469562,-1.2549061563926172,-1.029888500763596,-0.8394889460005786,-0.6202409738492243,0.37847787483132433,-0.3863784875879418,-0.3731025695542427,5.850216476481032,-0.20006604244462609
-61.0,-62.0,87.0,-49.0,10.0,0.6674445930703587,0.7940289124457718,1.0126745550033034,1.2025510340664223,2.4396250643261395,5.485893567472477,2.0412861233991055,-1.926725322022228,-0.06456421448815242,1.0262258745036719
-24.0,-18.0,127.0,-19.0,23.0,-0.6283185307179586,-0.3720307089777388,-0.057871443618759066,0.21495107629824917,1.8022821012699337,0.9759101566006214,0.46020237818293663,0.3126364029727696,0.6478554839196441,0.42287413965814336
7.0,-16.0,138.0,2.0,44.0,-1.1896916980859935,-0.31859540389421515,-0.004032853213850718,0.2702011653280052,1.8107510930190207,0.37613536080699683,0.9812628614528571,0.6635604569049272,-0.011728208574479768,0.34944314267280985
24.0,8.0,138.0,0.0,3.0,-1.2542480175928832,-0.3703017956702799,-0.07565305502941211,0.20306872665789522,0.48975398782198276,0.5038874639453702,0.0451335410325611,1.5578230250454002,0.09999999999999862,0.010361829328230938
-6.0,-10.0,131.0,-25.0,45.0,-1.2023379291516494,-0.341308831501113,-0.04654211338651537,0.22495354803482437,1.7065441575055669,0.025367204116042825,0.8909180116015726,0.5499282233237558,1.0330074164637808,0.2215124525595712
7.0,-7.0,138.0,0.0,39.0,-1.2775274473677163,-0.41780771863598254,-0.11248669347891838,0.17676480403830075,1.6631961107240079,0.25375595990297806,2.1194900060263735,0.6712545436097308,0.09999999999999862,-0.23473511249410672
25.0,6.0,147.0,-5.0,51.0,-1.2204748438406392,-0.3766897666174813,-0.07533795332349591,0.18834488330874066,1.627299791787519,-0.15801111212010044,-0.046103066213292736,-1.6856071470675695,1.815690519022104,0.14169372420253123
0.0,-3.0,134.0,-1.0,50.0,-0.6091219598617106,-0.2694903216357871,0.011074944724758229,0.2768736181189593,1.709233135854376,0.09999999999999862,1.708070256363691,0.10069851035123101,0.49777206863329504,-0.7634404737870689
-1.0,-3.0,124.0,-9.0,49.0,-0.589970451378365,-0.2949852256891825,-0.0073746306422295405,0.23598818055134574,1.659291894501651,0.5501775634016706,1.3095947896709004,0.06583804506686786,2.2834767200700057,0.81288454668049
-7.0,-10.0,0.0,-15.0,116.0,-1.5395884527526136,-1.2067044629682648,-0.3016761157420662,0.9154309719069591,1.310730709775874,0.4328466565395108,0.027703491547959,0.09999999999999862,2.289538839616332,0.5763556162174626
50.0,31.0,187.0,17.0,38.0,-1.2775090401195608,-0.47141882888919007,-0.19792393579317125,0.05397925521631919,0.2770935101104395,-0.29718196329602053,-0.013841951329432778,-0.03455897925104656,0.24609569038217602,-0.25946721347498536
-4.0,-6.0,140.0,-8.0,48.0,-0.6809031287823375,-0.2764062205948101,-0.006741615136458989,0.22247329950314,1.5168634057032264,2.175831511128111,2.6190658870248305,0.35108405683047295,1.81630125495793,-0.7965158856373172
29.0,9.0,157.0,2.0,10.0,-1.0290838638245483,-0.22755319761136894,0.0373594802048518,0.2615163614339613,0.49246587542758924,0.1108286652142908,0.04341708493471197,-0.0239000397014566,-0.006155592769994285,0.15737705532672178
-5.0,-5.0,134.0,-1.0,45.0,-0.4614002169419136,-0.28498248693471107,-0.020355891923907965,0.217129513855018,1.5199065969851269,1.8120909252819293,1.8035874819685795,-0.2524808797061515,0.5908698145430042,0.70571710543514
31.0,29.0,168.0,36.0,29.0,-0.7759147607658656,-0.1827710325359595,0.0862127511962072,0.3276084545455875,0.5138279971293955,0.3688472804680657,-0.10339850918783394,-1.4259733698844044,-0.20452569679552185,-0.11180689155088508
-8.0,-10.0,127.0,-9.0,45.0,-0.5624059824556413,-0.22567883372423836,0.05373305564862818,0.29015850050259173,1.7158755770461926,2.211036078299601,0.5803824940614092,0.5541840969445658,0.7621395669891754,0.4249230330013546
7.0,-13.0,97.0,-14.0,-9.0,-1.0154272637623953,-0.22361394617150232,0.05498703594381249,0.3042615988890933,0.49488332349430797,0.0394515309486664,1.1956253910410148,0.4252292644743556,0.7336524913684833,0.4092184473587238
37.0,-22.0,188.0,-34.0,14.0,-1.994957946196486,-1.1652791741801904,-0.8296787720162957,-0.45678943627863466,-0.11186680072129818,0.0019128920040915598,1.236453051032703,-0.21775050512801064,0.7685918649687751,-0.19058760929692037
3.0,-41.0,23.0,-14.0,116.0,-1.2198125321630697,-0.6559369276725944,0.18412264636423714,1.3118738553451887,1.714642144266957,1.5174773261163055,5.197324802277032,0.49827599929607513,1.7356516576066938,-0.7581100488865231
55.0,12.0,47.0,0.0,0.0,-1.27404639100241,0.1978332905283242,0.6726331877963037,0.8150731569766965,0.8783798099457609,1.083354922829861,0.02579107272276654,0.09171092782346056,0.09999999999999862,0.09999999999999862
3.0,-25.0,20.0,-11.0,0.0,-1.0035643198967392,-0.2617993877991496,-0.08726646259971638,0.0,2.8579766501407144,0.015474937468985645,3.1546067738488226,0.015292355680001883,2.0883100416593545,0.09999999999999862
47.0,-30.0,240.0,-28.0,75.0,-0.10833078115826877,0.34304747366785104,1.011087290810508,1.7152373683392543,2.780490049728897,-0.5902790482763876,3.018592363613952,0.3131192217965344,2.5024125959929813,-0.7815522154008018
-34.0,64.0,13.0,-11.0,-23.0,-1.9991953250116865,-1.3463968515384828,-0.7343982826573541,-0.5507987119930156,-0.36719914132867704,-0.02065333021110531,0.2425506231675946,0.0011748272027872,0.031203391970043952,0.00662282388240857
99.0,40.0,62.0,-4.0,-2.0,-1.8479956785822313,-0.9503977775565762,-0.8447980244947346,-0.6071985801055901,-0.29039932092006504,-0.11205954678480767,0.0724028426686221,-0.06342881071518117,0.31691735200084903,0.0015710157802771244
18.0,-28.0,244.0,-42.0,-23.0,-1.798018436960196,-0.039516888724399735,0.6717871083147986,1.4818833271649963,2.1141535467553956,1.2992136245826331,0.9161992621311783,-1.5875619872613647,1.8606341050967625,1.0859213495688982
5.0,-4.0,13.0,-74.0,-71.0,-2.222102120831805,-1.6665765906238537,-0.9194905327579885,2.1454779097686387,2.3753505429581363,1.363118218486504,0.06453157993526853,0.7761607681918633,1.8168676140041014,-0.3562358052026383
57.0,65.0,208.0,-29.0,94.0,-2.593395277795601,-1.9186908152796722,-0.4427748035260781,1.1596482949492524,2.298212075444882,0.04231223958276208,0.229346939463325,-1.495171930227778,4.446040160357379,-0.3068984486424866
105.0,68.0,120.0,55.0,73.0,-1.585207302270079,0.2593975585532857,0.8358365775605869,1.4122755965678886,1.6428512041708094,-0.23284147299340546,0.03160162271648534,0.10784749798491183,0.3844821926153859,0.33155036275773075
-119.0,-121.0,-58.0,-118.0,-127.0,-0.8367055811068296,-0.7104103990529684,-0.2999510573779198,-0.20522967083752386,0.8682793766202943,1.4474764123799049,1.9631720758015034,-0.7448858895932858,0.15456774176056465,-0.08830960170399171
-7.0,-14.0,72.0,-2.0,95.0,-2.537967864253763,-1.2209683238842428,0.1783436877583724,0.260656159031468,1.659968170674083,0.09999999955330172,0.09999999969814585,0.10000000410149287,0.09999993621967182,0.47975648399022075
32.0,-31.0,58.0,5.0,183.0,-2.213874017630391,-1.7640710426197719,-0.4427748035260781,0.9347468074439433,1.4267188113618072,0.08101284636241694,0.059682691392750925,-0.24264487715141392,0.04292085251982627,-0.3461476893824149
64.0,21.0,87.0,24.0,21.0,-1.4527182430039363,-0.1502811975521312,-0.007156247502482227,0.13596870254716675,0.4937810776712883,0.867687192410179,-0.25009387824057056,0.5349659254676581,0.09716477380685895,0.17596046368166818
-58.0,-57.0,18.0,-26.0,-42.0,-1.75001469965069,-1.665676641836199,-0.4146621175879144,0.3443804027425057,0.4427748035260781,-0.15571964694719176,-1.3840611153891174,-0.10671345608258336,-0.06359638299353806,0.4790914119798998
3.0,7.0,58.0,-39.0,-39.0,-2.660911810417584,-2.50640725368366,-1.0643647241670338,1.3218723187235746,1.3562066646644464,0.03959827001589939,0.30102915031296934,1.1518970352573972,-2.7802759182898305,0.10875242297820475
75.0,12.0,72.0,14.0,-10.0,-1.5299964222028213,-1.3259968992424451,-1.0811974716899937,-0.5099988074009403,-0.28559933214452693,-0.6491218217917393,0.043956077959690074,-0.3495756464996248,-0.06925661034896696,0.151108587559044
57.0,69.0,189.0,-14.0,3.0,-2.7094158864292925,-2.1110172857455227,-0.8809757176733282,0.4487989505128276,2.376972219382753,-0.1386419847952076,0.43040808457519697,-0.8429427987719711,0.9060092321024329,0.8763726237660437
12.0,-20.0,44.0,-48.0,57.0,0.6253755867801698,0.8019522230475116,0.9490994199369629,1.0668171774485247,2.4205713888314797,0.035828953316935565,1.092188223004007,-1.1018815960648864,1.8815446167038614,0.08249682090546093
0.0,0.0,74.0,33.0,184.0,-1.5312568311547503,-1.5025008343255533,-0.481662946889053,0.7836009135956234,1.2868308581065744,0.09999999999999862,0.09999999999999862,0.4468255281166179,0.13633526316817665,-1.0870005687162787
22.0,-22.0,37.0,-11.0,-4.0,-1.4386732712700923,-0.2642461110496086,-0.02936067900551187,-0.014680339502755935,0.19084441353582893,0.5738462694460921,-0.033219886046134746,0.036608871567990545,0.08211408690281725,0.35540159814198014
-31.0,-90.0,162.0,-62.0,17.0,-1.663196110724008,-0.8724258668655649,-0.5458033748370776,-0.21058555407099844,0.10744160921989687,2.3782527434568075,0.8818220021531418,-0.03951587946412749,-0.6394293238024473,0.44698906549446976
8.0,-34.0,184.0,-46.0,-6.0,-0.8363035999139496,-0.2545271825825064,0.021816615649929094,0.2981604138823646,0.516326570381656,0.33404623593993543,0.4663195062606377,-0.2761485104434428,0.3146082248154357,0.32132849247437056
-6.0,-90.0,203.0,-35.0,-10.0,-0.462320123992936,-0.25118179964970544,0.018201579684761438,0.32398811838875075,0.5860908658493122,0.23319408117814103,1.1834055461360826,0.4063489928285069,0.5042834406197145,0.4660043265188335
48.0,-62.0,163.0,-59.0,15.0,-0.9270273404035456,-0.24279287486759538,0.036786799222363165,0.3310811930012658,0.706306545069368,-0.5901692130454009,-0.6445830252902822,-0.20857818308810872,0.4537551589193275,1.3635195528664767
7.0,-35.0,17.0,-4.0,-7.0,-1.0278408496957363,-0.888472598889535,-0.7491043480833333,-0.6910342435807495,-0.5516659927745478,-0.33872757355572386,-0.30439083537032113,0.2779615439302736,0.006301572985796389,0.1713680999921022
41.0,14.0,68.0,-3.0,68.0,-0.7319122669653639,-0.41662698273413046,-0.23646396317342555,-0.03378056616763203,1.970533026445211,-0.04696708347965934,-0.018843355630907915,-0.007532554909596277,0.49907508897805297,0.3907095370226784
23.0,-9.0,42.0,-10.0,17.0,-0.505543645405254,-0.252771822702627,-0.10833078115826877,0.0,0.6860949473357021,0.001887641966425234,0.7382815459529994,-0.01414446434437767,0.9060756723186913,-0.006503852753291997
-30.0,-96.0,140.0,-62.0,-11.0,-1.7772438440307974,-0.9514537750871943,-0.6193425517077022,-0.2603033912974402,0.4487989505128276,2.238366816750059,-1.383152887263548,-0.8052819516962102,0.41170401795350275,0.480365311888447
13.0,-49.0,32.0,-44.0,163.0,-0.4082295538563008,-0.301734887632918,0.27806940624994425,1.4021797719412072,1.851823918217712,1.9522583291399784,-0.15681530952196815,-0.7582112190723379,-1.5046387942724606,-0.6624906153265697
60.0,34.0,45.0,23.0,-14.0,-1.7343177109722834,-0.5153401198317642,-0.29731160759524844,0.0,0.12883502995794105,0.7296555491129822,0.015596667765377888,-0.01134287200431461,0.07490282351836872,0.0999732575593669
52.0,38.0,110.0,3.0,8.0,-0.7969090722183805,-0.6694036206634397,0.49231271572602164,1.2219272440681834,1.4061017852030986,0.001688036330377396,-0.2065977422741349,1.1322266867271282,0.009153226217050232,0.05133462397637881
77.0,11.0,34.0,-15.0,27.0,-1.2978780460776365,-0.2547237286694424,0.08490790955648064,0.21833462457380826,0.5458365614345202,0.4714325785614747,-8.583411759133242e-15,0.032042490854882984,0.1064555118306075,0.08770448430474861
-25.0,-33.0,-14.0,-21.0,116.0,-1.388977397127935,-1.0789910252367223,-0.05365148744271009,1.102836130766815,1.532048030308495,-0.02034516075177522,-0.036575788286521305,-0.08913765807045024,3.0778708417080756,-0.7887473301694796
-18.0,-16.0,18.0,15.0,20.0,0.2628424132485483,0.2878750240341241,0.600782658853825,0.7509783235672813,1.3267283716355305,0.09635807126917764,-0.09654117935672826,-0.03428350346637785,0.07093171737260637,0.0304623178496385
-12.0,-18.0,25.0,-32.0,5.0,-1.7032731254402493,-1.097664903061494,-0.3028041111893778,0.6434587362774278,0.7317766020409961,0.06590575446811617,0.05169049620893978,0.04686713772575348,0.44456685671114704,0.26219897171887263
109.0,0.0,44.0,35.0,6.0,-1.3445229519538782,0.03279324273058215,0.7017753944344634,0.990355930463588,1.5281651112451398,0.6337716401096203,0.09999999999999862,0.006231295885170228,-0.010844176390742333,1.446303990769975
3.0,1.0,28.0,-34.0,107.0,-1.6136062895796632,-1.3501603647503306,-0.40175503536473256,0.9286468850233973,1.4160218459576637,0.03234406343219679,0.09349028055901418,0.5899723517400076,2.785085766889939,0.2796761459133694
4.0,31.0,61.0,-21.0,7.0,-2.733593607669041,-2.638393830287532,-1.2375971059596154,0.3127992685392438,0.5711986642890534,0.04125762752128486,0.10826202397544032,0.796438243318223,0.22953750220899605,0.09919495764972272
28.0,12.0,33.0,-12.0,89.0,-2.017660799072755,-1.3405934168335756,-0.5822779487256944,0.8801875969109334,1.3405934168335758,0.07351420647443238,0.0116274181763941,0.2684703116933702,2.4029655599265123,0.192031220470247
-14.0,-7.0,13.0,3.0,-20.0,0.3769911184307757,0.4649557127312889,0.7665486074759094,1.2189379495928394,1.3823007675795091,-0.03297812248811965,0.01046337793493136,0.03537030449095222,0.09110357389063925,0.9725023660551587
0.0,16.0,85.0,-37.0,66.0,-0.9810587584894441,-0.6944573234251123,-0.43725090734173744,-0.2020907554940803,1.546912873872869,0.09999999999999862,0.14725075763295234,-0.9262091828253047,1.0102643115622656,0.6013079905381588
9.0,-21.0,23.0,4.0,-16.0,-0.4981813593071194,-0.3863447276259291,0.35584382807651416,0.9658618190648234,1.1183663168119002,0.08150540509950308,0.4371186196672585,0.06068043782632603,0.12649388055969107,0.2772864857197278
43.0,0.0,17.0,-22.0,13.0,-1.501980487716263,0.017951958020513192,0.6163505587042835,0.7240623068273617,1.095069439251299,0.5886903922021766,0.09999999999999862,0.042945917823013956,1.2701873384733937,-0.03229415828453384
-10.0,0.0,114.0,-22.0,-11.0,-1.1368932729264989,-0.7534440625311709,-0.5112656138604375,-0.2959958817086745,0.36999485213584293,1.0621576010251546,0.09999999999999862,0.14905978104932993,0.5238516696327821,0.18249478538264427
-12.0,-21.0,12.0,-8.0,-30.0,-0.7576782282187149,-0.2771993517873348,0.4712388980384685,1.191957212685539,1.2566370614359172,-0.038114173944856715,0.03310347399877065,0.9420501414939281,0.0063901944654304235,1.8512795617436937
87.0,-16.0,17.0,-20.0,-11.0,-1.4965854767100983,0.19789560022612918,0.7792139258903816,1.6079017518372956,1.9047451521764884,0.5534047767066518,0.401525888069009,0.056465395470519895,0.05804528211436564,0.1016257301304869
-10.0,-18.0,112.0,-33.0,76.0,-1.0143258791859422,-0.7889201282557328,-0.5423825881758164,-0.316976837245607,1.3876541541641014,-0.0782766893534341,0.42283715326884275,-1.2551647114941866,0.7119392542303644,0.4268488806642402
14.0,-23.0,27.0,-3.0,8.0,-0.43101118723030707,-0.13409236936054025,0.43101118723030707,1.0248488229698411,1.1206290867987985,-0.05005717290763701,0.08241334913075779,0.044319971824441494,0.5761135168348864,0.025785823795408176
55.0,-22.0,24.0,-24.0,-20.0,-1.5466302294595906,-0.2658270706883674,0.10874743800887776,0.1933287786824489,0.3383253626942855,0.9364711707991361,0.519859719920126,-0.007606231812567902,0.005134442921728065,0.00845180415626442
19.0,-13.0,19.0,-11.0,-39.0,-1.7146860666539712,-1.6547320083793566,-0.8033843808798329,-0.2637978564083032,1.0551914256332129,0.10000000000000572,0.10000000000002704,-0.021778890226224264,0.10000000039833598,0.13660613383545825
37.0,-7.0,0.0,-21.0,9.0,-2.350899671113261,-1.0236650219562247,0.6989161184390777,1.066023574588896,1.5460871710925046,0.06894950475877412,1.1103500415404979,0.09999999999999862,2.5030153535812527,-0.03741664628069117
63.0,56.0,63.0,63.0,69.0,-1.5082029247784017,-0.8166948644056959,-0.17287701509317666,1.1624488945920488,1.532048030308495,0.13988287197748522,-0.011650756197164514,0.30461275522170295,-0.01957665817928364,0.025519312180498105
27.0,-43.0,8.0,-44.0,-34.0,-1.3445229519538782,0.01967594563834929,0.2689045903907754,0.5706024235121339,1.331405654861645,0.8567781152227795,0.2505970061449293,0.032606428707771314,0.11213208452465089,0.0888164979438287
51.0,-2.0,58.0,27.0,-4.0,-1.4687110309235303,-1.1394036248868642,-0.414927331606199,0.27003207295006604,0.5729948865037988,0.050537102148523146,0.08128866892067496,0.22392557368325447,0.08826717192313266,0.026033274983275546
28.0,-16.0,60.0,-40.0,8.0,-1.624696200753545,-0.8161980913738187,-0.5389987395864839,-0.3002992977696124,0.06929983794683325,0.19742958006119363,0.6308030431590111,0.31310355263643297,0.41491644041543074,-0.13020746321623883
-5.0,14.0,27.0,16.0,26.0,-1.583608694876421,-1.4093604889676885,-1.2043625996632976,-0.8763659767762717,-0.7328674542631983,0.005897229625658343,0.058655739303736014,-0.02325466139582632,-0.010418874196270177,0.01062570802892395
29.0,18.0,37.0,-18.0,-10.0,0.4197269537184747,0.5469169396937694,0.8776109032295372,1.0683958821924806,1.4499658401183657,-0.03204196814984215,0.03447504625570587,0.046709177249324794,0.06089886271703026,0.03983598474830625
-7.0,-44.0,42.0,24.0,-24.0,-1.8849555921538759,-1.598114523782634,-0.163909181926424,0.43709115180379765,0.9151595990892005,0.1698191394083663,0.08777897025361345,0.03946220169639354,0.0309663445884907,0.10000000215680135
-19.0,-30.0,120.0,-13.0,3.0,-0.757010277973444,-0.5071968862422076,-0.19682267227309547,0.06056082223787529,0.3785051389867218,1.5746984709220855,0.39265072862998807,0.23531940483828534,0.2198839074483268,0.32572275521710714
9.0,-25.0,119.0,4.0,11.0,-0.6479315952219751,-0.2836889687188111,-0.0035023329471455256,0.2416609733530608,0.5218476091247259,-0.05066692240762312,-0.6538633940686488,-0.20745704923466013,-0.01156288176903223,0.11921298823319233
-3.0,-10.0,135.0,-39.0,2.0,-0.377273191845239,-0.2503401553365605,0.024681423765576582,0.2785474967829331,0.4689470515459515,0.6678494054824164,0.6478492307912611,0.3982123475994136,0.5316124885116537,3.75097522486989e-13
16.0,-9.0,127.0,-28.0,-6.0,-0.4719763611026919,-0.18436576605573896,0.1106194596334431,0.3539822708270193,0.5604719288094464,-0.12184448508220067,0.6267604179073508,-0.3915976597034764,0.6160656885642183,0.2815411583390195
8.0,-7.0,126.0,34.0,7.0,-0.5248852590764277,-0.2778804312757557,0.015437801737541612,0.2855993321445265,0.5403230608139693,-0.05376981285253809,1.0070808008489522,-0.70700313374998,0.33426590750857593,0.04397291744937192
46.0,-6.0,152.0,10.0,20.0,-0.5969026041820604,-0.3063052837250049,0.0,0.2513274122871838,0.5262167694762905,0.2967627386577465,0.9940634643525059,0.4289215666081163,0.041883787734425554,0.18624260613135768
-2.0,16.0,168.0,1.0,5.0,-0.576868129939565,-0.3352071565865038,-0.03897757634726773,0.2338654580836077,0.42095782455049324,1.3775284925676687,-0.05945197574770664,0.23864434410872315,-1.4762496780562628e-15,-0.008372267358710418
-13.0,-37.0,-9.0,-59.0,-43.0,-0.9478429448212089,-0.7451595478154158,0.029806381912616864,0.6736242312251357,0.8882301809959756,0.12817969306840238,3.8686382269467567,-0.003276459397328624,0.2819060734768811,0.17605840622831384
1.0,-1.0,4.0,2.0,24.0,-0.09331463327494438,0.32660121646230555,1.2130902325742765,1.648558521190684,2.130684126444563,0.08583027155539899,0.3364268251130006,0.3128797387293988,0.09772600024838315,0.052770837895017964
-11.0,-14.0,130.0,0.0,0.0,-1.0533036593668403,-0.8701204142595635,-0.5403905730664658,-0.2381382186394596,0.22897905638409588,0.4377010290966247,0.6617176458852775,-0.5515396691935109,0.09999999999999862,0.09999999999999862
-10.0,-37.0,127.0,-11.0,62.0,-0.5406110101845254,-0.3667081677475448,-0.08695142121848987,0.1550003595633953,1.6823209757490467,0.5073820371668475,0.47210908600688706,0.3420641252278023,0.36547492173035534,-0.30847591507843364
0.0,-29.0,123.0,-3.0,-17.0,-0.5029463876976701,-0.27698496713784726,0.007289078082574729,0.25511773289012263,0.3863211383764713,0.09999999999999862,1.0355946152448738,0.3975010394572379,0.5204684664456554,0.26330076328811314
-2.0,-10.0,165.0,3.0,13.0,-0.4994697997642761,-0.3112637882588962,-0.02895477100082733,0.2243994752564138,0.7021531967700692,0.729041921700612,1.1848124378893474,0.3826759288004937,0.0210017914875621,0.16465443497362717
-13.0,-9.0,149.0,7.0,38.0,-0.37550397397937196,-0.2193538065820091,0.09294652821271576,0.3457610849513024,0.6654971420030451,1.66376985028853,1.3820497455727279,-0.26461742671833255,0.051238905008146644,0.37632735520882116
-4.0,-8.0,156.0,-1.0,13.0,-0.4685504935671818,-0.2765216027609596,0.0,0.2534781358642131,0.6068112949476614,1.244066855290113,1.1810789489783624,-0.8805401065750413,0.655890266565989,0.13375412756459204
-3.0,-23.0,162.0,-2.0,7.0,-0.6159985595274104,-0.26949936979324196,0.023099945982277603,0.29259931577551956,0.5697986675628548,0.9311026156716111,0.8661998791735982,0.6612293327508695,0.7470177106022137,-0.06397330905356709
14.0,-24.0,145.0,14.0,-6.0,-0.32391576428317137,-0.23025337461092876,0.05853899354515102,0.3317209634225251,0.4487989505128276,0.18311331621181864,0.7811448775961574,-1.6785834834914275,-0.06653398245777467,0.6773506928929812
32.0,12.0,132.0,16.0,41.0,-0.3402732597087179,-0.2690532751185213,0.023739994863399172,0.29279326998192046,0.7359398407653672,-0.04990793221143358,0.08460534443601872,-0.5897663076507498,-0.015488513788810665,-0.016059171530785066
24.0,-10.0,115.0,8.0,6.0,-0.49012059301528765,-0.36959913571644654,0.032139055279690965,0.33746008043675557,0.81954590963212,0.04960258144111318,1.3403419616626118,0.6887517312909233,0.06713310815701794,-0.032722731473546054
26.0,1.0,167.0,0.0,13.0,-0.5405327592851776,-0.3373249550426296,-0.02032078042425489,0.2641701455153127,0.5405327592851781,-0.13807138313448858,5.629177679544739e-15,-0.4574936710667443,0.09999999999999862,0.02655757444013883
-13.0,-1.0,110.0,17.0,14.0,-0.34532251688252424,-0.18529500905891538,0.13476000658830234,0.4379700214119824,1.1117700543534923,2.1938228323536544,0.6981130906096124,0.7154320090319914,0.18981262910466412,-0.10137523849831487
-4.0,-12.0,113.0,-18.0,1.0,-0.547697464014957,-0.3198553189847346,0.004381579712120054,0.28480268128777775,0.7054343336512643,1.1478502179541032,0.8516891238751135,0.4028954936260284,0.6076441378565732,0.20890006155704616
13.0,-15.0,95.0,-20.0,10.0,-0.6074902921306227,-0.3211020115547578,0.0,0.32978044429948117,0.6248471576200689,-0.04688617451255925,0.7139369135274037,-0.3485796487310765,0.4814797560437455,-0.1687811059269063
9.0,11.0,116.0,-6.0,86.0,-0.5981994000843414,-0.4141380462122366,-0.04601533846802619,0.255175967868146,1.8615296016610623,0.04878360778417524,0.051756967447039004,-0.08718632045665342,1.4598131974079487,0.993924590277731
-18.0,-7.0,148.0,-9.0,4.0,-0.21682063835348053,0.059971665927558426,0.4013488412075068,0.7427260164874547,0.8257637077717668,1.1147408908235816,0.7683199477836404,0.5082894022216764,0.7756522978331034,-0.03373226653422778
16.0,-3.0,117.0,9.0,0.0,-0.8986249009124121,0.6829549246934334,1.1574288723751867,1.6175248216423421,2.753386696395631,0.5516601620982214,0.8203592970949162,0.42059582161949893,0.007891869644359145,0.09999999999999862
2.0,51.0,0.0,-55.0,-65.0,-2.863463726511421,-1.4475346432033454,-0.36030338280607266,-0.347661158847965,0.2844500390574263,-0.0013542886942105245,0.10000000000000572,0.09999999999999862,0.13981923927534853,0.3536862515087891
55.0,-7.0,10.0,-13.0,53.0,-1.7269200996406366,-1.4592793461907965,-0.33773714125813203,1.0132114237743952,1.4210449528408189,0.03879926411683097,0.09937278324899243,0.3882260634079614,0.06319326842681937,0.39777476893748737
-6.0,-72.0,15.0,-62.0,-60.0,-2.564693403828793,-1.6993445291872933,-0.3072615569379238,0.4828395894738806,0.6835001980864019,0.5425873448212486,0.49223259263447117,0.06529421656440068,0.08650411137624756,0.08186546490693114
-2.0,-3.0,2.0,0.0,0.0,0.0818450991917179,0.2581268512969568,1.0891693969359402,1.3913666862592073,1.54246533092084,0.042842889099253344,0.04034979995822698,0.27805288966879294,0.09999999999999862,0.09999999999999862
-47.0,-68.0,-7.0,-17.0,-2.0,-0.2644872665239868,0.4064072631953941,0.5999345313836772,1.1160072465524316,1.5417672365666544,0.10013760189082607,0.23768703857830917,0.06236221827602583,0.3142033643520733,1.967349894105297e-14
0.0,29.0,22.0,-40.0,3.0,-2.460283403413693,-1.2995343105210793,0.5046735186489628,0.7443934400072201,2.7757043525692957,0.09999999999999862,1.2918533800970435,0.02824917103699528,0.15504636244747283,0.04518367762263712
-5.0,-5.0,50.0,54.0,-42.0,0.3258403339339706,0.39961550388128453,1.075887895064998,1.4570596064594534,1.8013437328802526,0.030643489213892365,0.028692366394372427,0.04311713645699005,0.23605911398329588,-0.037645438695742044
-22.0,-81.0,-74.0,-74.0,-67.0,-1.5420037261000819,0.04478848996971152,0.531063523926584,0.6078437924460904,1.2988662091216456,0.09302402241757055,0.3522186375761363,0.20894776152196126,0.052017500888047574,0.09100597377199106
-17.0,-13.0,45.0,-19.0,12.0,-2.167057789619082,-2.064475172359007,-1.1027631355458047,-0.5000902591428651,0.9745348639707112,0.04298013688243998,0.011015223973436137,0.09999999999979967,0.09999999999979967,0.1000135445718556
0.0,-1.0,80.0,2.0,76.0,0.3641531759563805,0.4629065796055687,0.9196410714830634,1.2282454578867759,1.5121614933781906,0.09999999999999862,0.027651707933705354,-0.11361770384274347,0.08990404339401867,0.3710267986563367
19.0,-19.0,44.0,-24.0,-30.0,-1.4211966766239539,-0.16206628768518794,0.29919930034188535,0.8352647134544289,1.0596641887108422,-0.011411351210492257,0.0826713306250085,0.10000007858916579,0.08004848439290843,0.05285254577071034
-81.0,-85.0,12.0,-93.0,-90.0,-1.4802335167013538,-1.1804393867365228,-0.26856557476016096,0.6183253930524639,0.7182567697074078,-0.03622159869672111,0.2689314960540858,-0.0001706432825244516,0.23790052444593923,-1.4236316779326699
-5.0,77.0,79.0,0.0,-4.0,0.6934417565505298,1.0672973122560334,1.1155367387986797,1.4893922945041824,1.7788288537600554,0.7815967990400509,0.30016873028146196,0.6959063776553112,0.09999999999999862,0.057808991749514906
-8.0,-9.0,6.0,-16.0,-27.0,-1.50867443816459,-1.1300267360370064,-0.15974199933507416,1.1418594767284933,1.5323399195475638,1.745383720807118,1.1159636143404215,-8.623310399080708e-15,1.5437037323423142,1.4793655048294796
118.0,-53.0,39.0,-78.0,-73.0,-1.4900834720584,0.2855993321445265,0.4221903170832131,2.297212019423366,2.471055091163513,0.4029812621882115,0.13140720625347624,0.10000000000004125,-0.06504452346572408,0.046884024222597985
75.0,13.0,86.0,1.0,-6.0,-0.993837166422249,-0.23345168338777667,0.3668526453236489,0.4602333186787595,1.313999475068342,-0.03359024018143451,0.4557190666806775,0.10255647238479505,0.029394213210101987,0.03095401608962891
-80.0,-9.0,-8.0,-11.0,-11.0,0.05643579617227168,0.72112406220125,0.9719498229669021,1.4234361923450756,1.8623812736849672,1.8923781207154833,0.18331810894019251,0.2803345581696335,0.1361560293508368,0.9150842934360299
96.0,-27.0,56.0,52.0,78.0,-2.658270706883671,-1.2706689889209337,-1.1615317751485836,-0.7561649811369975,2.0502205158662923,0.3275369124935338,0.1000000013814358,0.09999274455352211,0.05992784777153868,0.0607178954624231
-39.0,-36.0,38.0,-37.0,-33.0,0.15140205559468844,0.6056082223787551,0.6939260881423239,0.7065429261085474,0.9841133613654769,0.09999999999999862,0.09998756130440686,0.10123470448740055,0.09702554388508564,0.0867433722419165
7.0,71.0,-49.0,-9.0,-15.0,-2.874739223555139,-1.4434344624601751,-0.4124098464171926,2.0620492320859647,2.159086843007657,0.007446478705466546,0.10000000000006967,0.10000000000012652,0.04187910431439546,0.027454006252531825
-78.0,-5.0,14.0,-9.0,-21.0,-1.9041775739731632,-1.003147176194064,-0.25829538069667546,1.0391883921052276,1.459669244402141,0.4959413599542787,0.2732866451761059,0.011914437036884338,1.332354335996348,1.5191079058901722
-6.0,-1.0,72.0,0.0,-8.0,0.2094395102393194,0.5924146146769327,1.107037411264975,1.5259164317436138,1.9567634242359278,0.04062551354518574,0.0069121515708785945,0.10009176485082069,0.09999999999999862,0.02957081384398065
16.0,10.0,43.0,36.0,-35.0,-1.5707963267948966,-1.5469963824495194,-0.23799944345377222,0.5949986086344308,0.868697968606269,0.03217122445342658,-0.07582175130131388,0.09999999999995599,0.06025844850355199,0.10156043883705909
-13.0,-2.0,0.0,-5.0,0.0,-1.4457426386422931,-0.11590341828777895,0.34771025486333595,0.44531313342146595,1.3237390404446314,0.09951714172133994,0.407212377724014,0.09999999999999862,0.8282921888212856,0.09999999999999862
-1.0,64.0,84.0,54.0,135.0,-1.897155951973642,-1.2993383208050988,-0.3477102548633364,1.0675314842295416,1.4579429984620589,5.4626442258509655e-15,0.0989559374601939,0.19051841080590168,-0.029488506372211787,-0.6980788007276941
-72.0,-50.0,-7.0,82.0,-48.0,-1.2481951617909544,-0.2110474911240745,1.1034768821630179,1.5376317210468278,1.9235471333879923,0.8826243624255937,-0.0026372735273927916,0.6688806350262041,-0.1331927846332746,1.103540920910183
-2.0,-28.0,50.0,-62.0,15.0,-2.881761682240261,-0.8267349088394194,-0.24802047265182603,1.1574288723751867,1.5353648307017789,3.081159837820327e-06,0.10000000000004125,0.0999999999999702,0.0760285751168269,0.13237724443198431
14.0,-30.0,29.0,-47.0,37.0,-2.0475792118691123,-1.8849555921538759,-0.7761581850045371,0.7761581850045371,1.2788130095789034,0.03392466049417777,0.2271904903181016,0.10000000000001283,0.20758856906183476,0.1346045031273774
0.0,96.0,97.0,-4.0,21.0,-1.0552840187734054,-0.9339870051212897,-0.8369493941995976,-0.32750193686071194,1.613250281573137,0.09999999999999862,-0.0013393994879264959,-0.39282056501188234,0.9481093132272836,1.1016630806292993
11.0,-71.0,11.0,-65.0,-65.0,-1.4095708973584704,-1.354293607265981,-0.2671735687803638,0.26717356878036336,0.30402509550868917,0.08553598726982589,0.13732947452569022,0.9969719196891504,0.19355162615393942,-0.28701319450746
1.0,-3.0,164.0,14.0,64.0,-2.510116743320488,-1.9417884240781134,-0.8998531721337599,0.11050828429712833,2.320673970239697,0.4766631818409257,0.20286199278154315,-0.3188171133957467,0.007628478311537195,0.10000142368841555
0.0,-21.0,-55.0,-84.0,13.0,-2.082132835985741,-1.8761267603405087,-0.7430933442917311,0.7283786246027857,1.2581085334048119,0.09999999999999862,1.5716594466798086,-0.00131196304055866,0.34238764265173527,0.1643520571568131
68.0,8.0,88.0,4.0,8.0,-1.255038286548594,0.08793261880276804,0.1039203676759981,0.631516080492605,1.1111485466895203,0.9728623581786224,-0.0019465503277388899,-0.028800407746453545,0.14161043351593025,1.8758417972460735
-2.0,13.0,25.0,-55.0,-67.0,-1.2799081181291752,0.5651542339791167,1.0804419179012514,1.628973968528041,2.277239119268792,0.10000000000002704,0.035134135482499565,0.20847451993345467,0.27009322863306406,-0.6019786200700366
51.0,2.0,54.0,59.0,1.0,0.2125889765587079,0.6377669296761233,0.8109875772424782,1.4408808411201308,1.8345641310436633,4.238740616560854,0.012798271851684565,-0.24324665511830645,-0.23747634375586668,0.011795042596978273
26.0,-34.0,60.0,-77.0,59.0,0.34906585039886595,0.6187985529798077,1.2217304763960302,1.729462622430745,2.824260062318097,-0.011372406084762436,0.4050701182669044,0.5304792061259519,0.49140027218823545,0.04089846701680807
-3.0,42.0,0.0,-40.0,104.0,-2.7942809029416753,-1.8944277308079154,-0.9630007631606903,0.7419841945664336,1.2629518205386105,-0.0040439397199719725,0.09999999999999862,0.09999999999999862,1.2719784369531255,-0.3538929176218858
68.0,-3.0,46.0,2.0,3.0,-1.475489583371386,0.27533059211236344,0.9107088816024342,1.0095455044120003,1.1225016447657907,0.8463268696920409,0.09999951594897002,0.08604021594357396,0.01213656780977448,1.253284308024901
-42.0,-45.0,-18.0,-44.0,50.0,-2.0873669309086544,-1.8062400715270175,-0.6536199480623059,0.8082397207222067,1.3142680676091532,-0.11476167641156303,0.15133373489345667,0.08451671736864061,0.3964600491143514,0.10055724207814476
57.0,11.0,31.0,22.0,23.0,-1.4499658401183662,0.4682181358715556,1.1629934342616064,1.2838239209381372,1.4348620292837992,0.866180420790441,0.028823379673730033,0.10179543049683992,0.07166420774508564,-0.03547567675948358
49.0,42.0,65.0,-10.0,78.0,-2.1072599371744802,-2.0455087302243125,-0.9031114016462061,0.748733384270786,1.2736186433472136,-0.3117128606984074,-0.23888430242771452,0.31980209946126903,0.3503884471811447,0.03518669868383595
-49.0,60.0,-49.0,14.0,-36.0,-2.843744140156901,-1.354501572992439,0.2482070945274102,1.652350086425331,2.092031225302458,0.23041480155343055,0.2589200087729452,0.4202408026837986,0.0383821152690288,0.17819922575736136
0.0,-2.0,57.0,-10.0,133.0,-2.073310587939573,-1.6797329848052809,-0.6255072621241422,0.8504087496294521,1.3704934394854797,0.09999999999999862,0.04566504543921319,0.6651659004162397,1.6404562991436138,0.4658316005921377
4.0,67.0,-50.0,-36.0,-41.0,-2.8002838220886797,-1.2799081181291752,0.4111220015808863,2.0556100079044324,2.552059217360598,-0.00686219944047794,0.3165321265579578,0.8209283969259275,0.058418614456889215,0.31134196648421986
55.0,5.0,82.0,-96.0,1.0,-1.0214045080636769,0.6809363387091176,1.1761627668612036,1.6868650208930411,2.414228837241417,0.04101830082338634,0.042863910045588184,1.3768642072306165,-1.534645301197139,0.30134884013320784
106.0,-3.0,46.0,0.0,43.0,-1.406792069936961,0.21138326439467248,1.246432352120312,2.2231688151853524,2.4709974699929003,0.8379787638089966,0.05200021169274114,0.4053711643779451,0.09999999999999862,0.08437211486065341
-29.0,-8.0,-2.0,46.0,-91.0,-1.6848354043842215,-0.7136639049138407,0.8019522230475116,1.3169674121605928,1.787838442206838,0.1667037293761607,0.0474130007364038,0.5286704288190608,-0.24352721148154965,0.09400825966271364
45.0,17.0,70.0,-23.0,-2.0,-0.8663864632202065,0.7006429659085147,1.2280086391729883,1.7252391311080633,2.764902886972312,0.3793318233414368,0.0316612266524946,0.8358358444075037,0.38952386964221686,0.09472141665472553
-21.0,-49.0,74.0,-67.0,-4.0,-1.8477219014446635,-0.9168796337143541,-0.5910848400087465,-0.29321531433504733,0.4142248091399878,1.8218673364644418,-0.11625057608225162,-0.15105977448373542,0.48530237885069605,0.6136015410055422
-1.0,-2.0,15.0,-9.0,92.0,-1.1484739101130967,-1.0755549316932171,-0.030382907674949777,1.2092397254629956,1.6346004329122907,0.05763221334675541,0.011562257837573428,0.6517599907942667,1.0909667492905641,0.15474502062640627
3.0,-32.0,50.0,-60.0,73.0,-1.1279902406064242,-0.8762899389835028,-0.5406895368196083,-0.2517003016229209,1.7619021113604472,0.022241315491213214,0.8972538337503287,-0.30979904958617643,-0.12975448183657198,0.39649236784626607
-4.0,-32.0,55.0,-58.0,8.0,-1.1776082051438703,-0.3638457245128901,-0.08215871198678171,0.16040510435514488,0.7550776863547077,0.03414037077265967,0.632677607455156,0.20810157759009085,-0.10499651047722969,-0.0005832460839074113
37.0,-17.0,67.0,-60.0,67.0,-1.1052350058412284,-0.34065462508805,-0.06813092501761009,0.17411236393389196,1.7865442560173284,0.30242995937510253,1.5769418924236818,2.6383627648436,-2.840714747316894,0.8395061974880654
-26.0,-23.0,44.0,-36.0,-9.0,-0.8380568134397879,-0.8066857027762664,-0.16133714055525328,0.282339995971693,0.4929745961410519,-0.14794270795881936,0.22080213745763877,0.7152021657662487,2.5744336576810727,0.45676728942389966
-2.0,-30.0,67.0,-94.0,52.0,1.0311231869795847,1.1757924649327034,1.2268522100926278,1.272238650234783,1.5828520999576563,-4.114169286830588e-07,1.4702736851781482,2.5827402304183007,6.3830752563494215,-2.029850794431194
17.0,-21.0,68.0,-71.0,62.0,-1.1269150118413216,-0.3804696985316358,-0.1195761909670856,0.10508210721349931,1.6921842782311804,-0.2667623766752855,0.9949206687830545,-1.6605724797943018,-2.3329989521475167,0.7531941788989073
12.0,-26.0,63.0,-83.0,31.0,-1.6798294814389358,-1.1861848692043842,-1.0136488882292007,-0.860283571806816,0.17972498018248206,-1.8949032774634502,0.2336676641731466,-2.603215424691786,5.91894828506353,0.44627504267619356
-28.0,-26.0,65.0,-78.0,59.0,0.7320686584753995,0.8581202155638787,1.032653140763312,1.1829453819072677,2.254383617159342,-0.04641973968362979,0.10751306136925963,-2.6517724873716233,4.541731467929619,0.8564168035734013
101.0,-37.0,107.0,42.0,51.0,-1.0373877380706342,-0.8853356346182006,0.19374380923777812,0.6548050261580598,1.3709213843533918,0.39531793317758224,2.0292523575473043,-0.24321347011363192,0.24423625203373256,-3.083969328389574
55.0,15.0,108.0,-35.0,77.0,0.31097604599057194,0.8300856660693214,1.001489785906645,1.1582021240436253,2.2258049276018097,4.726177084147896,0.13991483346611375,-0.511575438312471,1.839900317154664,0.2726475879716034
24.0,2.0,111.0,-47.0,97.0,-1.6972951709386608,-1.201124947306809,-1.0193596178575168,-0.8621571707662374,0.2136970765147086,0.5402120421707209,-0.01643175915399698,0.8901474424635425,1.7212734478529286,1.11632221342107
50.0,22.0,118.0,-41.0,77.0,-1.0432006139782901,-0.7284418080365644,-0.6205245031422586,-0.524598009902876,0.1348966311178823,0.7498041228883199,0.004633025368277463,0.03494802991128254,0.5545354025947147,-0.39964776713299843
75.0,-62.0,61.0,-12.0,-4.0,-1.6089224512316658,-1.486918853034004,-0.6557693403124327,-0.22494413417693915,-0.17538017240913906,1.590777723657189,2.123176955902613,0.08351045426252879,-0.029262198750309443,0.011924225556802538
3.0,1.0,34.0,1.0,6.0,-0.6872233929727671,-0.47684888491987953,0.46282391771635334,1.4585965891666897,1.6268961956089996,0.3737774736496593,0.4304179495979057,0.4924622928885313,0.3958908639510945,0.6903259779897569
-15.0,12.0,136.0,14.0,21.0,-1.3753983992291339,-1.1013337735524797,-0.7460648143420023,-0.431398021898437,0.0761290626879596,1.1919855957412282,0.023170833319630463,-0.4275538470122213,0.07502460099612047,0.01819153927910696
28.0,13.0,124.0,12.0,21.0,-0.9083119343270223,-0.2583272473774101,0.03333254804869812,0.2916597954261082,0.5249876317669946,-0.06315013054089072,-0.06129596570326777,-0.8233602021012856,-0.0866531739593217,-0.05563012357884484
-10.0,-27.0,117.0,-23.0,-16.0,-1.0444985884357818,-0.396747525839948,-0.11335643595427092,0.1376471008016149,0.3643599727101563,1.476656167792831,0.4036394085829563,0.23887833030778177,0.15776553999732076,0.707547880915579
-3.0,-18.0,13.0,0.0,152.0,0.2986304803792579,0.7525488105557296,0.9078366603529444,1.2661932368080535,1.6723306901238448,-0.02443455421193718,2.5120299104838777,0.07408871627960581,0.09999999999999862,-1.1036731161535167
42.0,-6.0,56.0,-3.0,4.0,-1.2312655293166648,0.14178209125464614,0.2761019671801006,0.38057298178878707,0.7387593175899987,1.3364660585726527,0.2783129208540419,0.02467949439443936,0.20636473773225875,0.10013118954796316
17.0,-27.0,31.0,113.0,-9.0,-1.2566370614359172,-0.3141592653589793,0.4487989505128276,1.3314368865213888,1.7802358370342164,0.013654376027452016,0.0963419349330977,0.04959053374293488,-0.34699351669946443,1.1912455508156996
-62.0,-68.0,9.0,-68.0,4.0,-0.2600423449280145,-0.007028171484540824,0.11947891523719534,0.4427748035260781,0.8222960636912879,0.10001418629200462,0.09443505192209475,0.0999999999723443,0.1372496973478205,0.03754838153598982
69.0,71.0,131.0,-3.0,-2.0,-0.9420627904423822,-0.7428600858554466,-0.4523561416661659,-0.17015231016800714,0.07885107056566243,-0.1767426356241173,0.6030839117239766,-0.06244773385622571,0.8050480606347805,0.592603834443756
16.0,20.0,179.0,32.0,26.0,-0.22987263318949713,-0.10727389548843203,0.1685732643389648,0.39844589752846105,0.689617899568491,-0.1055869798331859,-0.14773968629373385,0.705800091101429,-0.14361105428194704,-0.1714022608827939
-3.0,-2.0,5.0,-6.0,-40.0,-1.3709885748542543,-1.1742547883280832,-0.6578285986968844,-0.46109481217071346,0.28895274896031387,0.9826261856909597,0.5039601838102344,-1.420738526825005e-15,0.3486803831985257,2.998989312059915
45.0,23.0,113.0,-18.0,-21.0,-1.6220686104588249,-0.9322233393441524,-0.6245896373605819,-0.30763370198357043,-0.10254456732785666,-0.15527448778210162,0.04277218026158584,0.08373246841708815,0.8199929089779077,0.8939682465346253
-20.0,-19.0,157.0,5.0,-29.0,-0.46401247425902525,-0.31187723679704993,-0.06085409498479022,0.19777580870056788,0.40315837927423503,-0.25119947241368973,0.4971176532627467,-0.34935779023854385,0.033963339713656636,0.7811571640640679
19.0,1.0,153.0,5.0,-18.0,-0.4371555815136743,-0.2741484155255245,-0.02222824990747485,0.24451074898222425,0.5779344975943483,-0.03927930441782573,-1.4901274658640773e-15,-0.7936874362999595,0.023423509188175727,1.570316769111907
14.0,8.0,122.0,-7.0,-8.0,-0.4153547979505734,-0.18879763543207906,0.07551905417283145,0.3171800275258927,0.9364362717431112,-0.126536967065176,0.056976880675966714,-0.041981556483536187,0.9372621511826247,0.4779053675712376
16.0,8.0,144.0,-19.0,-2.0,-0.7995312923017726,-0.14536932587304952,0.12921717855382164,0.37957546200185144,0.6380098191094947,-0.1613985547207094,-0.04693836419760942,-0.43549659636617255,0.8464677250981921,0.7848135545450378
18.0,-2.0,114.0,4.0,1.0,-0.9362362212684814,-0.3287229399120446,-0.045771548595348044,0.27046824169978345,0.5284533337826542,0.25194317821625345,1.168896833042338,0.7400062971794115,-0.030231991988360123,-1.4762496780562628e-15
18.0,3.0,147.0,-9.0,6.0,-0.9235128010552671,-0.2803521003203491,0.008245650009422345,0.2721064503109272,0.8410563009610468,0.1133849837888356,-0.009999998393714564,-0.7014609593996515,1.1797503731514447,-0.04163665692341357
21.0,-6.0,136.0,7.0,60.0,-0.9660194464526755,-0.33283022945008156,-0.048706862846353616,0.24353431423176675,1.9563923243285277,-0.30968710179782155,1.2311541874933192,-0.898162605572695,0.019886541371951387,-0.23092287189508343
-16.0,20.0,162.0,6.0,-19.0,-0.4385471978361388,-0.25515473328648053,0.0,0.25515473328648053,0.39070568534492356,1.4642629243156322,-0.13409203174190126,-0.5164160979457946,-0.03523366566308681,0.8369549516497216
32.0,-23.0,183.0,37.0,45.0,-0.3398556696495554,-0.16578325348758804,0.12433744011569114,0.373012320347073,1.2019285877850132,0.30016432876153154,1.394238420514013,-1.4671506869185307,-0.00899691753020554,0.3831988772996686
-15.0,52.0,61.0,58.0,203.0,0.08939491290702684,0.4597452663789938,0.5874522848176036,1.0216561475088755,1.5069428175755917,3.1251376380899556,-0.06730715495519612,-0.3669645836452218,0.5413117882415638,-0.4637136116411349
77.0,0.0,75.0,0.0,67.0,-1.8586385856316578,-1.7599498111733396,-1.1349209062706582,0.34541071060411355,1.0362321318123398,0.15627682790172895,0.09999999999999862,0.09999759643350078,0.09999999999999862,0.10000508227125668
1.0,0.0,93.0,-2.0,93.0,-2.1862545367086863,-0.8634786825656158,-0.6797598139346337,-0.12860320804168746,0.7165035876608301,0.5341767065284477,0.09999999999999862,0.0998585229552916,0.09999484541856848,0.11270205300575217
-8.0,33.0,90.0,-34.0,20.0,-0.5416539057913439,0.6499846869496122,1.160686940981451,1.6868650208930411,2.1047123196463637,0.049094321125542344,-0.009901489086524329,-0.5606446166165653,1.7880140898753099,0.04669267249298623
40.0,-31.0,148.0,4.0,-4.0,-1.4365402304876407,-0.32221463113741455,0.12083048667653085,0.5235987755982991,0.8189621874742623,-0.6503387162368753,2.2993267341754065,-0.5031834353571454,0.03462114303019204,1.7845420792552589
-63.0,-3.0,-51.0,-73.0,-60.0,-2.139216787463867,-1.7235975258994585,-0.37894697377931363,0.452291549349503,0.794566235343722,0.7429918833232904,0.1392428575757462,0.1000084078879738,-0.264660825170402,-0.1500091022873074
-54.0,41.0,-33.0,66.0,37.0,-2.7573690916399625,-1.2882790018317858,-0.09040554398819545,1.7403067217727637,2.01152335373735,0.23134468697346602,0.09999999999995599,0.09999999999992046,0.0865075837297383,0.1015487768268358
-30.0,5.0,169.0,9.0,4.0,-1.424188669627373,-0.57246799465414,0.1256637061435919,0.5724679946541404,1.0471975511965974,3.5200743124119547,0.029631711575389345,-0.9288924253677222,0.08814704406582602,0.018778704930460292
-57.0,-67.0,-51.0,-58.0,-42.0,-0.5571881310140387,0.011855066617319832,0.8654198630643579,1.244781994818597,1.7664049259806767,1.485846552746301,0.30064440344915366,-0.016025840381687723,-0.10758915694881249,0.6143845236660526
-12.0,15.0,32.0,-26.0,51.0,-1.0104537774704014,-0.7716192482501247,-0.440925284714357,-0.055115660589294624,1.2860320804168746,0.10000000138119422,0.09981658749361774,-0.018876923178326906,0.10000020361280523,0.3302943365673471
8.0,-6.0,196.0,7.0,3.0,-0.6368816452762953,-0.3371726357345093,0.03746362619272281,0.4120998881199558,0.9687023344118435,-0.07978043020510629,0.7977772502564577,-0.6102189351991085,-0.05419133997684047,0.013141525166608221
3.0,5.0,190.0,6.0,26.0,-0.6041524333826525,-0.32953769093599217,0.04393835879146568,0.40642981882105733,1.1643665079738392,0.05320144477611984,-0.02646981165780605,1.4255068301537208,0.0558460086548875,0.17084633863957766
17.0,0.0,146.0,2.0,13.0,-0.6370300528076354,-0.3865737927294197,-0.02722350653024108,0.2994585718326497,0.6479194554197321,0.0244477748598467,0.09999999999999862,1.166278888913747,4.82877626772904e-14,0.12710628405435134
0.0,-5.0,137.0,-8.0,3.0,-0.5687824262844465,-0.3242591402182362,0.0053157236101348815,0.33489058743850597,0.45183650686147603,0.09999999999999862,1.1861260083919576,-0.4344916726433412,0.9262868064234929,-0.010140770352007437
2.0,-2.0,140.0,-5.0,37.0,-0.5915986165850908,-0.42839899821678973,-0.1121997376282069,0.20399952296037593,0.5099988074009407,0.012453735570426916,1.0329766285246706,-0.6456227664300318,1.0201891572559476,-0.3603665667980789
-4.0,-17.0,146.0,-4.0,0.0,-0.5309048050252518,-0.33607735363983826,-0.024353431423176808,0.3165946085012967,0.8913355900882669,0.6679092179265766,0.9540601249174563,0.6264632009340246,0.9231654195516854,0.09999999999999862
-3.0,-10.0,127.0,-10.0,6.0,-0.9685348243461491,-0.3097344869736416,0.02458210214076484,0.31956732782994735,1.027531869483986,1.59585810968334,1.8897754157805822,0.3420294409634351,0.989602512618339,-0.06243993108376038
7.0,-13.0,136.0,-24.0,10.0,-1.1205680802613274,-0.3601825972268551,-0.010005072145190308,0.3601825972268551,0.6903499780181392,0.3429018902924833,0.863212027733843,0.4573029985245597,0.7625703496342083,-0.09136726727347132
22.0,22.0,158.0,2.0,22.0,-1.1245187187006804,-0.327774514419481,-0.005042684837222922,0.327774514419481,0.7614454104206403,0.07259356682333548,-0.1782525998456429,-0.3627622385079561,-0.012630893049690459,-0.005206216627272636
-32.0,-6.0,126.0,-36.0,1.0,-0.573505605582628,-0.3197420632894299,-0.0050752708458636775,0.36034423005634153,0.949075648176561,1.8449803451922784,0.21293456508264177,-0.5188138289922624,0.5949660448779697,0.05179490809164863
40.0,34.0,170.0,0.0,45.0,-0.46943338501916454,-0.30435790896846937,0.02579304313292141,0.34562677798114283,0.7686326853610495,-0.36141117756908236,0.30312132774169154,1.0328190990657036,0.09999999999999862,-0.4016986957682188
-33.0,-40.0,99.0,-44.0,-39.0,-0.7707799234695769,-0.3242591402182362,0.03721006527094506,0.3774163763195859,0.9302516317736274,-1.9163723315078032,-0.7147555983775873,1.2721791516719905,0.9619405708534273,0.6939304235361153
45.0,17.0,188.0,32.0,25.0,-1.097664903061494,-0.37309792271548314,0.016221648813716794,0.3730979227154836,0.8813762522119388,0.257245141775442,0.08422804337182897,0.31717614978141606,-0.00141012991596845,0.17453326368614291
-9.0,-20.0,156.0,14.0,18.0,-0.7632742714707597,-0.3207964329369859,0.04424778385337724,0.3761061627537079,0.7522123255074149,1.596362581391388,0.9869986774421646,0.44108299471161994,0.07894223653845125,0.021626140760053925
10.0,-34.0,115.0,-37.0,8.0,-1.111119843370178,-0.4230151687957533,-0.016920606751829936,0.32149152828477234,1.0321570118616377,0.12963199422887972,1.94685627225457,-0.12896834754546793,0.41313580205516454,0.021284682675448058
-6.0,12.0,134.0,10.0,11.0,-0.7319122669653639,-0.3603260391214098,0.0,0.3828464165664984,1.0584577399191417,1.9781428489941733,-0.08522079691352671,-0.5841441314292068,-0.07205474102519986,0.0031985627501978434
33.0,19.0,123.0,16.0,-18.0,-0.8496834223232179,-0.4024816211004718,-0.033540135091705725,0.3354013509170599,1.0621042779040222,0.009103805030433489,-0.002105768308965611,-0.46667036585374577,0.133139028636284,0.022238390655656963
26.0,-31.0,114.0,-31.0,23.0,-0.4136616661310404,-0.30186121582535375,0.011180045030569019,0.3465813959476285,0.514282071406158,0.3646456889361491,0.44843244145839234,-0.06819892971320585,0.6492168291602085,-0.25049725828770925
35.0,13.0,142.0,-1.0,10.0,-1.1724059540570604,-0.5122161935200746,0.03414774623467176,0.39839037273783573,0.6943375067716575,-0.24844331462200228,0.06764728904993479,-1.0601294377715091,0.8823595730495046,-0.04502628791446904
6.0,9.0,125.0,-5.0,-26.0,-0.6632251157578453,-0.3141592653589793,0.023271056693257464,0.3839724354387526,0.7679448708775052,0.03202701395249575,-0.0653356655965155,0.49313055380942417,0.9609363995271054,1.248229499639765
28.0,8.0,143.0,12.0,26.0,-1.1249116551815028,-0.47211318170829886,-0.06411413578754699,0.2739422165467911,0.5537129908924499,-0.007608724667797689,-0.0854974115911577,0.08480608887268781,-0.0562645973264982,-0.22310047674664507
0.0,3.0,138.0,2.0,36.0,-0.7045483524594758,-0.4388989736632798,-0.023099945982277603,0.3233992437518909,0.5428487305835308,0.09999999999999862,-0.0048054376494605176,0.4738738155362283,-0.012670655670562815,0.2856307088627815
-16.0,-34.0,136.0,10.0,-23.0,-0.6904599238658884,-0.4142759543195331,-0.034522996193294464,0.3107069657396502,0.9436285626167145,-0.03762720688973919,-0.8338051460401289,0.37673640635999417,-0.038594990866600995,0.04745431527267945
12.0,-32.0,131.0,-33.0,-3.0,-1.1471136478245298,-0.36315658197459966,0.017293170570219285,0.3746853623547457,0.7090199933789809,0.1829681038272005,0.9005381024905418,0.3780866498324279,0.6972412831978317,-0.011632356530009248
21.0,6.0,133.0,-12.0,-24.0,-1.1766264620186493,-0.42358552632671387,0.02353252924037319,0.37652046784596793,0.8118722587928677,0.24865538488992103,0.022191967970981323,0.3989133295955569,0.7144844884379843,1.1560065404162523
32.0,23.0,143.0,-17.0,32.0,-0.8709960511864625,-0.5346113693489323,-0.006006869318527119,0.43850146025249526,0.8349548352752989,0.33105778370763406,-0.10591602369987702,0.4985940566559235,0.9357107523103054,-0.11021892544054271
3.0,-11.0,117.0,-4.0,-57.0,-0.6813818999148689,-0.4401847672016408,-0.030149641589153564,0.35576577075201143,0.8743396060854511,-0.01776356534200977,1.091107564062837,-0.29703606580761166,0.26790037010663825,2.6867389595488724
66.0,2.0,170.0,-6.0,89.0,-0.5404252012791515,-0.4572828626208203,-0.06532612323154563,0.2791207083529681,2.310169267006483,0.5073986472651824,0.012831598079762288,-0.4617891456710561,1.2421488405339205,0.709325066860066
36.0,26.0,156.0,32.0,55.0,-0.7303333475134943,-0.5216666767953528,-0.05796296408837254,0.28981482044186313,0.7998889044195416,-0.2732712518570616,-0.16038348833586058,-1.2802517450774586,0.2191813028212898,-0.2833827767618624
16.0,-37.0,107.0,-20.0,22.0,-0.500833611441851,-0.44392070105073156,-0.03414774623467176,0.30732971611204496,0.7284852530063284,0.14766458725305984,1.4445227332088622,0.46050481626664763,1.0153962355392976,-0.03773424058374586
-16.0,-16.0,-5.0,-12.0,29.0,-0.5137195534171988,-0.35565199851959894,0.3951688872439991,1.1855066617319974,1.363332660991797,0.05757326203323599,0.0659718952156155,0.001496025000483299,0.2179646814320576,1.6898128620417396
-31.0,-40.0,0.0,-39.0,18.0,-0.13983350090162272,0.009322233393441515,0.17712243447538922,0.45678943627863466,2.0788580467374596,-1.04689544378637,-0.29983222596647696,0.09999999999999862,-0.20429390282467397,0.10000000000000572
18.0,12.0,108.0,-8.0,9.0,-1.2365214022603894,-0.4318950352392745,-0.04141459242020451,0.30173488763291756,0.7513790339094233,0.1559052448440684,0.10297585462715547,-0.5114392342120319,0.8658348917226547,-0.006872060822425398
8.0,-1.0,140.0,-13.0,31.0,-1.2393438908656982,-0.46691560539591404,-0.05187951171065697,0.29398389969372385,2.253876564318549,0.18524171410503687,0.8145370245146074,0.6215961804905246,1.4106872037777411,0.5125663029784263
15.0,-1.0,131.0,-8.0,3.0,-1.0961672208568705,-0.3955242549483553,0.0,0.3390207899557329,0.7345450449040887,-0.01739224500622094,0.7546664125408096,-0.2562005190147245,0.9720414199659211,-0.05269849434809048
3.0,-1.0,140.0,-9.0,-7.0,-1.2091542902217305,-0.42513643994097405,-0.06073377713442474,0.2815838758050604,1.286451824756453,0.06853394641457725,0.8400853551254481,0.6642951282331557,1.3586641539456663,-0.033033351094631326
18.0,7.0,133.0,-14.0,-20.0,-1.050771604272354,-0.3859977321816812,-0.04288863690907574,0.28949829913626113,0.6326073944088666,0.06727362045738261,-0.04013432672457435,0.40928748362747525,0.8206214004659301,1.0423921383198176
38.0,-5.0,143.0,-10.0,-17.0,-1.1212418224933272,-0.412532368653205,-0.03173325912716951,0.3067548382293066,0.7087094538401217,0.2728040102502749,0.8205434166425634,0.4560266904895641,0.699446587419429,0.8850752808212604
-3.0,2.0,149.0,0.0,-5.0,-0.6628059972410711,-0.29637666543299934,0.0700526663750729,0.3933726650292537,0.7813566634142712,0.7046952311610171,0.011899495949384631,0.8105994099684808,0.09999999999999862,0.6568274180277229
-9.0,0.0,135.0,-11.0,3.0,-0.9746015337826224,-0.4627996110140944,-0.0707811169786261,0.25590096138426377,1.0617167546793933,2.0265000294395974,0.09999999999999862,0.6818507951957876,1.1991628981629232,0.02470486209032994
32.0,-6.0,141.0,24.0,0.0,-1.1399646255785791,-0.4013959949220349,-0.026759732994802388,0.3371726357345093,0.5619543928908488,-0.08149211007911139,1.0842260270730564,-0.6476140386095908,0.23253243932734968,0.09999999999999862
-3.0,-6.0,106.0,1.0,-23.0,-0.6834156025515736,-0.4079302433834977,-0.03708456758031797,0.2913787452739265,0.937709780245183,1.2616793796148174,1.236019726954359,0.3806857980648659,-8.581677035657265e-15,1.133327961522005
9.0,19.0,127.0,-18.0,-20.0,-1.0963947515883845,-0.3478944884847759,0.0,0.33735223125796443,0.6536199480623059,0.21852756432345866,-0.08862633825121063,-0.36212643228043495,0.5595573065371923,1.0556808114466762
18.0,32.0,131.0,27.0,34.0,-1.0436656876175197,-0.35495228969732917,-0.005297795368616853,0.32316551748562805,0.8105626913983781,0.22367273623481015,-0.2039300419890615,-1.087187608263379,0.17483235725264656,0.02212665012404258
23.0,17.0,143.0,-17.0,70.0,-0.573128389506246,-0.382085593004164,-0.021226977389120272,0.2865641947531232,2.2712865806358637,0.06255018742754645,0.03587988183361407,0.44529831037467316,2.3826866623025498,0.9111604648054751
-7.0,4.0,118.0,-32.0,-37.0,-1.0471975511965979,-0.3774163763195859,-0.0053157236101348815,0.31362769299796556,0.6963597929276868,1.1189600219270506,-0.023470000026983955,-0.4847834485295066,1.297324099157285,0.4518695525921276
-3.0,21.0,123.0,8.0,15.0,-0.6625127364713168,-0.3526277468315073,0.0,0.3312563682356586,0.6304556685775431,1.1182814292760228,-0.035084558480300176,0.7358016113568824,-0.05884481229067424,-0.11336943557351153
42.0,18.0,155.0,6.0,10.0,-1.0941408896985143,-0.3358254215906329,0.010833078115826567,0.33582542159063333,0.595819296370478,0.05731351431911091,-0.18379677245204115,0.710939300576419,-0.03513686971660377,0.09141986021251618
3.0,-14.0,132.0,10.0,19.0,-1.1493631659474852,-0.3831210553158284,-0.03283894759849959,0.306496844252663,0.634886320237658,0.47118808031578996,0.9297738663790213,-0.47005217356960005,0.05073800352696426,0.11013859379460092
16.0,-10.0,159.0,10.0,15.0,-1.1423973285781066,-0.37347604972745785,-0.010984589697866642,0.31855310123812597,0.6041524333826525,-0.2583068574073135,1.209197610762685,-0.3073015134866721,0.02485093616962622,0.11357962512540917
40.0,17.0,145.0,-26.0,-26.0,-1.139380434224467,-0.36504421679036314,-0.01106194596334431,0.33185837890033065,0.8849556770675475,-0.08369561486324764,-0.041010011576362054,-0.34903808384916024,0.49357728651400246,1.1122185756434944
53.0,2.0,153.0,29.0,-3.0,-1.1065078549811838,-0.36142216368732116,-0.005560340979804845,0.33918079976810134,0.750646032273667,-0.22572772955297304,0.00936506251195931,1.0914958421086483,-0.28223659730250106,0.781944797705505
0.0,0.0,148.0,-4.0,3.0,-1.0434170546218806,-0.37426916089697926,0.0340244691724525,0.3742691608969788,0.7598798115181093,0.09999999999999862,0.09999999999999862,0.6426945764357996,1.3414646004255446,0.010000010624578677
2.0,-24.0,135.0,-4.0,-5.0,-0.7026482644812662,-0.412297741968346,-0.005807010450258332,0.3426136165652456,0.7026482644812657,0.12691497131531734,-0.7950320022272749,0.4610051594773581,0.7521160419227315,0.7854034455036455
11.0,-1.0,133.0,2.0,0.0,-0.71874075469582,-0.39414815580093343,0.0,0.3709629701655843,0.7882963116018669,0.08862949767196854,0.7212629207360723,-0.5222004332622645,0.012684696352268756,0.09999999999999862
20.0,-19.0,137.0,-12.0,-1.0,-1.1951711182135083,-0.4553032831289556,-0.05691291039111945,0.318712298190269,0.6715723426152094,0.27687726783623967,-1.0227284618271333,0.5912377380524547,1.0325427946788666,0.5536035018610785
31.0,1.0,143.0,-6.0,55.0,-1.2141683912487413,-0.5063572214624794,-0.11433872742701157,0.25590096138426377,2.1397676132769305,-0.2783923499732532,-1.4901274658640773e-15,-0.6926763081117622,1.460340406378665,0.5841363500420463
21.0,-43.0,125.0,1.0,3.0,-1.131785398627664,-0.47200018866534865,-0.12688177114659904,0.22838718806387837,0.6953121058833633,-0.3761902475150102,1.3096710896419688,0.3950876150607229,5.629177679544739e-15,0.02745765779763898
-4.0,-13.0,134.0,7.0,9.0,-1.02149945178073,-0.3854714912380115,-0.05782072368570157,0.26019325658565773,0.5492968750141665,-0.03210677528945429,1.4165709071194699,-0.17360490818051622,0.014965948978402054,-0.04023689111986604
-1.0,11.0,142.0,2.0,-23.0,-0.9769586910553625,-0.2969188178697668,0.028734079148686753,0.3543869761671412,0.7662421106316568,0.47287805038138153,-0.10367975495511139,-0.002215066903727969,-0.007831403950434917,2.014846797882456
-3.0,-12.0,130.0,4.0,8.0,-1.014976088082856,-0.35765824056253015,-0.009666438934122557,0.2899931680236727,0.7346493589933054,0.024762619463613807,1.3763830805191672,0.5947219220197497,-0.010559335287241838,-0.06864714270484903
32.0,14.0,150.0,10.0,-26.0,-0.9786893001837362,-0.3131805760587958,0.019573786003674876,0.3327543620624702,0.7731645471451514,0.03535182269195614,-0.08941622465011104,0.5520353116521605,-0.08404055183262422,1.1493342965673021
12.0,14.0,171.0,10.0,47.0,-0.5514228651228463,-0.28835874598167166,0.04553032831289583,0.3591837011350649,2.200632535123285,-0.03933179053290675,0.10635226866803843,-0.40532714490355337,-0.04149533033335666,0.938482043075068
17.0,7.0,115.0,-20.0,-31.0,-1.0577221497010862,-0.32100025438689705,0.04736069327019754,0.35257404990036223,0.657787406530526,0.0871733332030232,0.053925096033770985,0.37981818601360684,0.30249743188443146,1.0866938947953868
43.0,38.0,160.0,-7.0,41.0,-0.458263954741569,-0.30366888567212413,0.07177628206795639,0.41409393500744196,2.4238298329102275,0.03140703841896095,-0.41134027450613886,-1.1268471609446864,1.2063899847554453,0.9005185118922996
12.0,-27.0,132.0,0.0,-4.0,-2.3970859565092675,-1.5284948099153213,-1.111119843370178,-0.7050252813262552,-0.09588343826037038,0.4434069166135991,1.4358047952943012,-0.6180300457783452,0.09999999999999862,1.1171773315588767
9.0,2.0,140.0,11.0,-3.0,-0.3953560443624502,-0.23381271440790075,0.06376710392942764,0.34434236121890827,0.9735111199892588,0.12287202634103699,-0.015407736172159093,-0.8144194166327112,-0.11328709004169994,0.5863752650500541
-7.0,1.0,131.0,-6.0,14.0,-0.49279884762192827,-0.2991993003418849,0.008799979421820314,0.2727993620764244,0.5631986829964895,1.39121235542436,-5.070596720280207e-15,-0.9152286783333716,0.9524252355442244,-0.030982819585498034
-10.0,8.0,128.0,7.0,47.0,-0.6473061786242709,-0.37975295812623866,-0.09493823953155989,0.17261498096647232,2.036856775404371,1.948853966904958,-0.05350945454832061,-0.4650018515893015,0.046556720336449246,0.6075183725441832
10.0,-20.0,142.0,16.0,-7.0,-0.5249876317669946,-0.2999929324382826,-0.016666274024348837,0.2749935214017589,0.8333137012174516,0.07448007631675599,1.2505775675344162,0.06672878658157644,-0.2173921100988291,0.48309283873625697
5.0,-3.0,131.0,-1.0,-8.0,-0.55341963301648,-0.2787903414443922,0.012483149616912659,0.2871124411890009,0.4785207353150014,-0.020914713483337267,1.4295398131845531,0.5608595511248122,0.8297989616439015,1.415400554182034
13.0,3.0,141.0,10.0,8.0,-0.9666438934122441,-0.2243994752564138,0.07767674143491199,0.35386071098126815,0.595521684334329,0.05758648859476853,-0.015757332376826867,-0.09707413747141769,-0.01685214155208767,-0.061531453231337095
28.0,1.0,149.0,15.0,-1.0,-0.5288724323309437,-0.24861524596753748,0.05876360359232713,0.3390207899557329,1.071305696260116,-0.09477249855960032,-1.5456386170953351e-15,-0.6931153194257589,0.04965028492087144,0.19883472019503848
-10.0,-13.0,115.0,3.0,24.0,-0.6661256629388101,-0.3780713222085139,-0.07201358518257406,0.18903566110425718,0.5851103796084143,1.0820361663188562,0.5251643901350661,0.2963866430318859,0.00993937693428959,-0.0539332975305925
-10.0,-18.0,118.0,8.0,-7.0,-1.1354125623028328,-0.4183098913747276,-0.11098017526268267,0.1536648580560227,0.8280828461907874,0.01473445477605917,0.8636223284439936,0.3482924043499821,-0.06459043300427132,0.00129575824975906
5.0,-1.0,133.0,8.0,-9.0,-0.6283185307179586,-0.33455921765501717,-0.05711986642890521,0.23663944663403624,0.8486380155151654,-0.03160092768940503,0.9143669177634793,0.5727404791185777,0.02996418304777245,1.276469035962203
14.0,-5.0,144.0,0.0,-8.0,-0.9492296386952725,-0.32170544240300014,-0.03574504915588905,0.22638531132062978,0.5520624258520619,0.07232887043510589,1.3675105990714784,0.6379884512179308,0.09999999999999862,1.0171905906750873
14.0,-8.0,142.0,-6.0,-3.0,-0.8374856878880466,-0.15932654550065273,0.12664417719282683,0.39627371573239234,0.6005385176563061,0.0493867275782536,1.6820447372818212,-0.3344567376616352,0.9919749973722802,0.9317778081052688
-1.0,-14.0,110.0,-18.0,-7.0,-0.4859922337044984,-0.23431768410752607,0.052070596468339225,0.31242357881003446,0.6769177540884086,0.3165301295477605,0.5311177351333093,0.3979195861193773,0.5338697294163758,0.5601214565304339
4.0,2.0,145.0,-5.0,5.0,-0.6038158582108517,-0.3325362697393093,-0.03500381786729578,0.21877386167059854,0.5338082224762606,0.023471606156951437,0.012182116708454033,-0.6739685418989312,0.995322728800963,-0.036525578349392164
-12.0,-2.0,129.0,-6.0,41.0,-0.6399540590645874,-0.415554583808174,-0.11635528346628865,0.15791074184710574,1.9281732688699256,1.413897622553249,0.5853280278596906,0.7127434495202416,0.906358707211711,0.20679728605564518
1.0,4.0,157.0,7.0,6.0,-0.586636466026595,-0.36278834083223677,-0.1080646121627935,0.1466591165066493,0.3473505390946947,-1.5714859968873895e-14,0.02371167745443825,0.21041082891397744,0.055820701687763076,0.029015973683380734
-6.0,-3.0,127.0,-26.0,-18.0,-0.4775220833456486,-0.35544876880615917,-0.11848292293538654,0.11130213972718117,0.2692793703076961,1.13666415844679,0.4910225867737119,-0.3177325147989063,0.4861465575957581,0.6513712500091934
13.0,1.0,141.0,9.0,12.0,-0.40203847095769696,-0.15298809071841557,0.09606228952086582,0.3522283949098406,0.8930235062865668,0.10761854381105915,-1.4762496780562628e-15,0.5248202376563698,-0.06921232237986327,-0.09868067356849705
5.0,2.0,137.0,0.0,-2.0,-0.2999510573779198,-0.031573795513465175,0.24469691522935566,0.4893938304587113,1.1603369851198488,0.02671140402426387,0.012712696310915534,0.5751427920434744,0.09999999999999862,0.39204487678482547
1.0,-7.0,125.0,-7.0,0.0,-0.36959913571644654,-0.21119950612368354,0.07919981479638105,0.3343992180291657,0.6159985595274104,2.0209528495129803e-15,0.7734358580245684,0.3328491642411947,0.6777168940817745,0.09999999999999862
-16.0,-5.0,110.0,-27.0,-18.0,-0.5977565420993454,-0.3550583971868293,-0.04943851100069763,0.22921491463959853,0.46292423937017,1.1858975974156132,0.3204504310700629,-0.1940646028970766,0.30796781698538117,0.8172835439739486
5.0,7.0,128.0,-19.0,6.0,-1.058580133274822,-0.4183098913747276,-0.1365909849386866,0.1536648580560227,0.4012360182573924,0.06548162232666253,-0.026337311860517333,0.27911157955309773,1.0847283050022427,-0.03645365812913468
1.0,-21.0,136.0,10.0,-16.0,-1.0678319857029348,-0.4333231246330751,-0.18570991055703212,0.10059286821839253,0.41784729875332216,0.31046757530796665,0.6678274550410798,0.4956169074591821,-0.06273330996504892,0.8345275627949981
9.0,5.0,141.0,5.0,7.0,-0.5369003611215812,-0.2902164114170711,-0.04353246171256053,0.2176623085628031,0.44983543769645973,-0.05816781431811962,-0.03605441249113072,0.14057318170589705,0.0011629420026245882,-0.04541861220054031
3.0,12.0,117.0,-6.0,7.0,-0.3471130344525788,0.38226372148575116,0.6898322330260105,0.9710377292913908,1.261030897315064,0.1880722271126357,0.0711476637310058,-0.21155345698813988,1.0520638054771099,-0.04587951386533148
7.0,-12.0,119.0,-29.0,12.0,-1.9322766530447681,-1.5247897398176402,-1.0647238700450763,-0.6835264350906662,0.43377639149984626,0.0708272939082428,0.7193133540522524,-0.4970367226254111,0.6629689314816062,-0.03210835832111914
10.0,-5.0,145.0,13.0,2.0,-1.169425656541311,-0.31713238143493205,0.009910386919841585,0.30722199451509047,0.7829205666674879,0.21451901058744935,1.1198767352470986,-0.66121174437813,0.06861533025825856,0.012343690784314956
-7.0,-2.0,126.0,-4.0,12.0,-0.6263301809372055,-0.3579029605355464,-0.009941748903765202,0.30819421601672037,1.1333593750292286,1.4609540068906477,0.6725608130157307,-0.1319444442237283,0.9170487276436732,0.05580793120041415
19.0,-11.0,119.0,-4.0,-15.0,-1.2305777675351723,-0.4198441795119998,-0.08203851783567817,0.21716078250620718,0.5453148538489199,-0.15858798114773212,1.3998330654649414,0.477216739103936,1.03261617635984,1.1007936071884559
0.0,9.0,156.0,2.0,-12.0,-0.7386747599092152,-0.44498479512603284,-0.14239513444033047,0.14239513444033047,0.3292887483932643,0.09999999999999862,0.022982019761110806,-1.1150605189440843,-0.012314121274494055,1.259652650921249
4.0,-15.0,110.0,-18.0,-12.0,-0.38626139183481056,-0.24034042158610447,0.051501518911308164,0.309009113467849,0.4806808431722085,0.1204194130823474,0.3475195529288996,0.16036409178247713,0.39413191898450817,0.6473945323568117
7.0,-9.0,148.0,-22.0,3.0,-1.023261607169247,-0.19747153822564423,0.09873576911282189,0.3769911184307757,0.6552464677487286,0.3521282233783354,0.9950771608889313,-0.5079978000152905,0.9363303889671911,0.014822948057363271
45.0,21.0,160.0,24.0,1.0,-1.199517195007012,-0.4613527673103892,-0.16257192752842275,0.10105822522037133,0.5843801719264929,-0.3097839154254919,0.12060814944675229,-0.35342021040297444,0.0123615172942374,-8.623310399080708e-15
-10.0,8.0,157.0,-15.0,62.0,-0.5283773824160147,-0.3399637421746453,-0.061439230513490095,0.20889338374586597,1.937383735525387,1.4156779566743247,0.06026365583349328,0.39823688432776794,0.9665759235065523,-0.5038810989258394
-7.0,-10.0,124.0,-8.0,21.0,-0.5590302716914168,-0.32282029773729715,-0.055115660589294624,0.2125889765587079,0.5983986006837703,0.31702094917214163,0.6969251464595652,0.4146593903112026,0.7813670042933212,0.09184346985932251
31.0,7.0,171.0,11.0,-32.0,-0.8254694982646651,-0.16829960644231035,0.12021400460164999,0.3766705477518375,0.6731984257692409,-0.2341331814816959,-0.01705471510995852,-0.9050041964463289,0.028699139716449537,2.129353254925091
37.0,-3.0,116.0,31.0,0.0,-0.49288288562459215,-0.19286721611397084,0.09857657712491852,0.34716098900514814,0.7671829263200172,-0.06820061998374263,0.5985768810724736,0.03404477808790185,-0.28044801805478514,0.09999999999999862
-44.0,-5.0,133.0,3.0,-31.0,-0.709114620851321,-0.39108745756042573,-0.08165562300712192,0.193394896595815,0.9755698117166656,1.9897823288098602,0.770190938140074,-0.49122878636916445,0.0014522980227041835,-0.07626413816173386
43.0,-1.0,150.0,18.0,15.0,-0.9205204280679768,-0.3124702370505976,0.025335424625724023,0.3124702370505976,0.5151536340563911,0.11760405444092714,0.8225162844112279,0.8593306061778905,0.053741984454144714,0.07069793221251604
19.0,-6.0,159.0,-3.0,8.0,-0.5786016483419125,-0.2614422262878273,0.021429690679330093,0.30430160764648706,0.5528860195267167,-0.14246847099572768,1.0978260156131037,-0.5566462283304376,0.9654843869988263,-0.06596625116859829
-15.0,-20.0,118.0,-21.0,-12.0,-0.5782601862376819,-0.3020762166913262,0.008630749048323505,0.26755322049803176,0.491952695754446,1.7824186165660358,-0.421548119651608,0.015256322872295947,0.2162261927969803,0.3105598005555684
16.0,8.0,120.0,2.0,65.0,-0.9292034609209248,-0.20353980572553576,0.08849556770675449,0.3628318275976947,2.2389378629808947,0.08183547695475284,0.03103907815740401,-0.8927150246776119,0.012386252025044056,0.41823335437531595
-25.0,-34.0,87.0,-2.0,-32.0,-0.5103332328484163,-0.2106880319098967,0.10768499408728038,0.37923845743781426,0.6695197458470052,-0.8404406799684181,-0.47468205270952624,0.4841011064191816,0.20746149292283303,0.8047661711478881
25.0,-10.0,144.0,8.0,-14.0,-0.5380097510734814,-0.3170414604540155,0.0,0.30743414347056053,0.6244756039245765,0.08210978094463399,1.0852315360966416,-0.8596989579618266,-0.042679203843940326,1.0625910013688782
34.0,0.0,136.0,26.0,4.0,-0.753794958610964,-0.3886023699671428,-0.051501518911308164,0.2575075945565408,0.5852445330830465,-0.35107145877678025,0.09999999999999862,0.11428022673597704,-0.17932348802234177,-0.057567127961265105
-18.0,-12.0,116.0,-11.0,50.0,-0.6655916638961425,-0.4171041093749164,-0.11536922174199837,0.16861655485368932,2.041147769281504,1.930067804709177,0.17362042334787742,0.2625117379214493,0.20917947250476362,0.5431810564265923
-18.0,-31.0,164.0,-3.0,-25.0,-0.7554684042141027,-0.3921830513679767,-0.10320606614946737,0.17751443377708442,0.43346547782776357,1.3762738369810052,0.3823918079194385,0.35913490824131467,0.5631848023099963,0.7931203286282468
48.0,-28.0,96.0,16.0,11.0,-0.8694747291919533,-0.18865961105108386,0.1066336932027867,0.3773192221021682,0.5249658742291037,-0.34425885388319843,1.1564439168252378,-0.2666956987295279,-0.09568980104804761,-0.028192182992975816
0.0,-5.0,186.0,52.0,-1.0,-0.5382011318898847,-0.3379402456052767,-0.045893119773555924,0.20443298808220423,0.4464148923427729,0.09999999999999862,1.0959270098814415,0.734404226635688,-0.49947865038685646,0.6442402973766181
-26.0,-24.0,103.0,26.0,35.0,-0.5262977383591148,-0.3319724195803646,-0.05667821797713568,0.19432531877875014,1.9351562995050529,-0.1676071920511515,1.226863703216479,-0.16382524334855578,-0.04253066493264247,0.6273195805921418
17.0,-31.0,107.0,7.0,8.0,-0.9128401295336381,-0.2884732876881193,-0.019758444362199867,0.24105302121883954,0.983970529237558,-0.12103029014530066,1.1217187223697975,0.31392633024998984,-0.030485598924032416,0.024929753730616254
25.0,-2.0,81.0,16.0,0.0,-1.1999557352483088,-1.0431775989847107,-0.9346388892637583,-0.814040322907144,-0.7055016131861915,-0.03751441330221281,0.4362418763205428,0.5686485263379939,0.12421444267606932,0.09999999999999862
15.0,-1.0,49.0,10.0,114.0,-2.784165944498739,-1.3732710401919455,-0.30099091291878244,1.0910920593305873,1.7495096813404238,0.10034536444361994,0.0999999551314453,-0.09892323260522234,0.08413295570943714,0.36305305525056264
6.0,6.0,7.0,7.0,7.0,0.7015206896365553,0.7904816466556839,0.9251939529989359,1.014154910018064,1.103115867037193,-0.036357023776394305,-0.050982016763080666,-0.039668715882868,0.028053463633764493,2.3765514216982537
-2.0,-3.0,34.0,0.0,27.0,-1.0681415022205294,-1.0430087609918113,-0.8545132017764239,-0.7791149780902686,0.03769911184307739,0.011672004364397937,5.656933255160368e-15,0.027083817159044087,0.09999999999999862,0.4793598186327074
-18.0,-23.0,48.0,-18.0,-3.0,-0.07699981994092653,0.26179938779914913,0.5235987755982991,0.6621984514919661,2.3869944181687153,0.09986724874644612,0.09673867164687952,-0.041757077362434815,0.08056183525159785,0.02584469814491392
-42.0,-8.0,51.0,-33.0,228.0,-2.414228837241417,-2.305898056083149,-0.6345088610698597,0.8047429457471389,1.3773485032979877,0.39709218109007205,-0.0008023405114500268,0.6144451968027965,2.0113525876672207,0.9725667066522474
29.0,-20.0,197.0,-31.0,-7.0,-1.7049414676506591,-0.8567979964335799,-0.5452350886395507,-0.1990540799795184,0.16443597911351526,0.3162328623830305,0.8524458648537759,0.5225222879547773,0.6537412657455576,0.3766060968116478
27.0,-16.0,198.0,-34.0,22.0,-1.0082320609195152,-0.2776291182242141,-0.014612058853905818,0.2849351476511668,0.9863139726386558,0.05608405209716816,1.7651491106349568,0.3384324415717912,0.9077136795033864,0.8987511975588502
25.0,-18.0,193.0,-36.0,-13.0,-0.9428418276706334,-0.24390116777580095,0.025482211558665924,0.32398811838875075,0.8117904539403518,-0.26305292385355483,1.1406767821540442,0.6744553804838795,0.8734805827349974,0.4404018860698272
14.0,2.0,225.0,-16.0,8.0,-0.44668943723192145,-0.23995713570309807,0.025841537691102978,0.32117339701799263,0.609121959861711,-0.15115549740549855,0.01266876730172437,-1.8538821863339296,1.2959216441525059,0.024603121948742077
21.0,1.0,196.0,-10.0,23.0,-0.49250621172666564,-0.2611775365217168,0.01492443065838378,0.3208752591552515,0.8506925475278777,0.0058292509853635766,-1.4762496780562628e-15,0.7475114397380298,0.9740066735880559,0.2022610424129845
16.0,-12.0,187.0,-44.0,13.0,-0.5548397526626365,-0.2924155453222004,-0.014995668990882116,0.28491771082675976,0.6448137666079292,-0.2446887856448301,0.8032158555108231,2.1664254157480016,0.8732968757594491,0.007307410441704049
32.0,-26.0,211.0,-22.0,63.0,-1.0373531558857012,-0.291640211085304,-0.018458241207930826,0.2768736181189593,1.7535329147534098,-0.5480712097539403,2.176025551689989,1.2202512950769404,1.9595279665907896,-0.30744456325658975
27.0,-14.0,221.0,-23.0,19.0,-0.8413601946960383,-0.1003457112940227,0.1852536208505038,0.5017285564701144,0.9339870051212902,0.13541376109777872,1.167500370735985,-0.17959061317527025,0.818800222647168,0.3713768341851337
0.0,83.0,92.0,-6.0,85.0,-1.0775511034051948,0.4704800592332541,0.5918942680676422,1.5935614909513447,2.170278982914688,0.09999999999999862,0.05089430025736033,-0.06431343357731939,0.1000011757162341,0.10000035526437476
77.0,-27.0,240.0,-58.0,34.0,-2.6455517082861415,-2.0833719702753366,-0.9259430979001495,0.4960409453036516,1.3889146468502247,-0.23643415948505142,1.308414880381355,-0.4803510634217707,4.815254385682554,0.3264589161072341
-21.0,-21.0,8.0,-21.0,-30.0,-0.08490790955648064,0.05660527303765406,0.4952961390794717,0.5943553668953663,1.3019212798660407,-1.429412144204889e-15,0.0022706045480073087,1.4608340868952454,-0.05272190472237658,1.332716460126305
27.0,-1.0,192.0,-26.0,-2.0,-1.646769482469944,-0.8500780121478266,-0.5461853894476372,-0.2176528243663518,0.12730636896899838,0.1689260873068389,0.6829900133967673,0.9857850884135697,1.0283033763037381,0.6111620808052745
31.0,-18.0,226.0,-19.0,15.0,-0.8740296879819649,-0.22114004153760547,0.03159143450537227,0.32644482322217927,0.726602993623561,-0.48639226059617746,1.106543032383661,1.2122739842476644,0.947053046366426,-0.06385728304571472
2.0,-10.0,207.0,-24.0,57.0,-0.4477915454611714,-0.23623648461337377,0.024681423765576582,0.3138066735909,1.7100700751863638,-0.011350328827832384,2.1470632816032524,0.7715890821739522,2.3487081775673424,-0.2819656597563608
47.0,14.0,253.0,-5.0,82.0,-0.9104501046485884,-0.21231840385085654,0.061176489245161836,0.34906585039886595,1.7957098901962274,0.552291809251399,0.0046044896153805,-2.530761219295843,1.8917800351286105,-0.16826281282608013
44.0,-21.0,200.0,-7.0,-5.0,-0.13217056471413402,0.8336912543506894,1.2200359819766184,1.61654767611902,2.948420289776828,0.10680101948214721,3.056365354873956,0.9850031781030419,1.6320734340354321,-0.031875696070011464
13.0,-5.0,148.0,71.0,80.0,-2.4570432816013557,-0.45229154934950344,0.37894697377931363,1.28353007247832,2.457043281601356,0.785475710644738,0.601156218063116,-1.7456298310016756,-0.3308484404151897,0.2721311393709902
10.0,-4.0,149.0,47.0,54.0,-1.8999410426309653,-1.043629586797291,-0.6796972180679788,-0.30506095614074624,0.208725917359458,0.429161416782327,1.1381939161832606,-0.538619426906125,0.07106111864482634,0.08788803961034056
-53.0,-53.0,161.0,-53.0,-13.0,-0.5699936038158695,-0.28720607944210474,0.0220927753417004,0.3137174098521456,1.9927683358213741,1.868864020210371,1.2623678438548878,-0.9924953559435123,-0.9376083558797972,1.9379385644198153
52.0,24.0,189.0,-23.0,-28.0,-0.9708711990685659,-0.21981989412873215,0.09159162255363862,0.39384397698064477,0.6319821956201039,0.11954294880728444,-0.0921967440687447,0.38413058149239854,0.719869475812969,1.2528161970041354
55.0,28.0,119.0,-29.0,23.0,-1.124652991373861,-0.3439021543870484,-0.03717861128508604,0.26025027899560405,0.5855631277401092,0.1516098584116886,0.15183867318793798,0.13057306520875644,0.997941750255626,0.10597480828453383
44.0,29.0,152.0,1.0,36.0,-1.0532245874624775,-0.3480613443545528,-0.03164194039586832,0.2757369091639963,1.9753611361420713,0.13131954563632897,0.2989956712052745,0.584782325513848,-1.4901274658640773e-15,0.5973458889991278
0.0,-13.0,162.0,-9.0,2.0,-0.5160541246530785,-0.2535002717594068,0.06337506793985126,0.3621432453705813,0.6609114228013109,0.09999999999999862,1.399976118924196,-0.6654740994637234,1.0671951308425724,0.01256317423507835
13.0,-4.0,139.0,-4.0,3.0,-0.926793596747367,-0.2043698700519836,0.11881969189068764,0.4229981031308494,0.9933326242061522,0.1659621781481378,1.4030154845317768,0.9951085676683915,0.994964019572953,-0.01640717333574459
18.0,-2.0,139.0,-10.0,0.0,-1.1392588743787164,-0.32057067893773405,0.014795569797125818,0.3205706789377336,0.7644377728515193,0.20203722908523084,0.9951554013603698,0.6427575130457004,1.1500372614853787,0.09999999999999862
11.0,18.0,147.0,-1.0,35.0,-1.1786986219441031,-0.41855828615974255,-0.08178725131857068,0.22611769482193012,2.03505925339737,0.1404405339332225,0.19288030642251563,0.24983929461000076,0.7020300654457428,0.5799537982833399
-10.0,-15.0,150.0,-28.0,0.0,-1.1150571863256848,-0.3747702576447325,-0.05089472634681558,0.3099951513851491,0.7634208952022328,1.9262716185287077,0.8033568330316235,0.47196548846414865,0.8715563197417411,0.09999999999999862
34.0,-1.0,168.0,16.0,44.0,-1.059013602550015,-0.37663663689017257,-0.06646528886297176,0.2525680976792928,1.900907261480989,-0.14434841086098654,0.8278569852620012,-1.0801628087232351,0.10717082579011938,-0.13186203660477747
11.0,-1.0,154.0,7.0,44.0,-1.0387524096546898,-0.38003136938586213,-0.0675611323352645,0.2364639631734251,1.8494859976778617,0.04159905885076788,1.0098534361825606,0.5683863896277392,0.049106056426227694,0.6455126661744103
6.0,-10.0,160.0,7.0,-16.0,-0.948637781672212,-0.29157265150964085,-0.012319971190548173,0.27514602325557647,0.8254380697667298,0.0716541663459349,1.0982198153350873,-0.5761088974310067,0.0523802950554696,1.3043368878102533
17.0,18.0,174.0,-3.0,19.0,-0.8289723510825571,-0.1742967507404347,0.12328306759689278,0.42936516645814526,0.8119677900347098,-0.09748022274390483,0.1181366918297246,0.2608295992501213,0.9254990948246431,-0.07663512845974271
12.0,-18.0,146.0,-7.0,63.0,-0.40567112343651957,-0.13207897042119265,0.18868424345884627,0.4717106086471161,2.311381982370869,-0.027242692352723905,1.189171113752613,0.27825333522550577,1.0048799445242322,0.5417829213685991
5.0,-31.0,132.0,-36.0,-29.0,-0.5597380169317288,-0.3479452537683718,-0.01512805451166832,0.2773476660472527,0.7009331923739666,-0.05885507606370195,0.7616695911131104,-0.25342625328602364,-0.14667120563817915,0.7475901367679811
24.0,-17.0,140.0,19.0,-23.0,-0.702592606234139,-0.37137037758090186,-0.03011111169574887,0.32118519142132085,0.5721111222192277,-0.07173978182481931,0.685166273212593,-0.4254084771518777,-0.03935734224147408,1.0064877207919225
60.0,45.0,170.0,-2.0,40.0,-1.1725314313398125,-0.3809490304352976,-0.03463173003957243,0.32158035036745947,2.162009432470456,0.21973717697866843,-0.16966227333994585,0.7751399392746365,1.0398745881723728,0.66166051610316
33.0,-29.0,186.0,30.0,36.0,-1.1564144737140343,-0.3951082785189617,-0.05782072368570157,0.2698300438666079,1.098593750028333,-0.09511413490698829,1.353587273977722,0.6331258262038503,-0.2949529716760763,0.0946958901160331
15.0,3.0,108.0,-56.0,-1.0,-1.1495902006469316,-0.38629954110807807,-0.06050474740247003,0.2559816236258352,1.9873482416042103,-0.04398752487858317,-0.008666552845626563,-0.016723563150812915,1.4472089697216348,5.3099885599650065e-15
27.0,21.0,179.0,18.0,-36.0,-0.6590122520461348,-0.3520750387643732,-0.045137825482612026,0.2798545179921943,0.48748851521220926,-0.24002969103810354,-0.012152216911844177,0.7198901236341411,-0.0773062242174383,1.5535629073281554
48.0,-16.0,154.0,-25.0,-29.0,-1.0078519784637776,-0.2542329315043763,0.05447848532236632,0.36318990214910896,0.5811038434385742,0.09153768347802763,0.4459147393435984,0.47601789243343196,0.3659193739637124,0.8003425347896339
59.0,-1.0,179.0,1.0,0.0,-1.0721679846081411,-0.3136910697325126,0.014045868793993055,0.30432715720318404,0.9223453841388816,-0.19652081731908988,0.8198226649445305,0.7389524133153514,5.629177679544739e-15,0.09999999999999862
-9.0,-22.0,166.0,-14.0,44.0,-1.1598321715287898,-0.44749430240087174,-0.10959044140429475,0.1735181988901342,1.9269652613588555,-0.009074164864523546,1.3745844191433376,0.4531219273953212,1.0368487715087211,0.8025419544544533
16.0,-44.0,150.0,-53.0,-1.0,-0.9974007445662698,-0.33832536269428504,-0.013181507637439971,0.29438700390282024,0.5140787978601478,0.5811212248310424,0.8682585125580062,-1.203175419518709,1.5234620094191258,-2.0174834025610267e-15
43.0,-19.0,142.0,24.0,21.0,-1.0212339755470952,-0.3375264834435314,-0.04327262608250404,0.27694480692802603,0.4154172103920386,-0.2283124949518938,1.3086839017584482,-0.7442245595768725,-0.1750404869431183,0.1733420157511737
-4.0,-24.0,182.0,-32.0,-36.0,-0.9833794178826776,-0.23496676356488733,0.052214836347753035,0.3742063271588951,0.5134458907529025,0.006617077807957804,0.33308349813704874,-0.015297066087476247,-0.0298474303786036,0.8433511234524631
22.0,-56.0,113.0,-11.0,-68.0,-0.6346651825433924,0.24328831997496714,0.6029319234162225,0.9731532798998686,1.1741305877052763,-0.07798690013501211,0.22406718614357932,0.34546003461090735,0.2243796903658021,1.1952336157289936
-19.0,145.0,-12.0,36.0,-4.0,-1.8255200554643392,-1.316072598125454,-0.792473822527155,1.8679740102425795,2.816112333623283,1.6826006990024838,0.7234716263965486,1.5718812201070542,0.7154255417480243,0.603305209529222
10.0,-8.0,180.0,-7.0,-4.0,-1.1671551654203565,-0.40850430789712444,-0.06808405131618755,0.301515084400259,0.6808405131618747,0.05270420111303257,1.5108680466045732,0.7909732079177636,1.290973220779103,1.128880528085125
13.0,-8.0,171.0,-8.0,-1.0,-1.0601059955873104,-0.27591799885149193,0.053247333111691386,0.3824126650748747,0.711577997038058,0.20275782915852472,1.3596770692714186,0.9186950889181942,1.247203816066227,0.7467293209417347
3.0,-3.0,140.0,-4.0,-1.0,-0.5748024413508137,-0.30722199451509,0.029731160759524755,0.3468635421944568,0.7135478582285963,-0.07216308502014152,0.9009309304569748,0.03927569853160673,0.811614918180068,0.520307939044513
17.0,2.0,146.0,-8.0,-2.0,-1.1707798709030286,-0.40977295481606024,-0.05853899354515146,0.2439124731047979,0.7902764128595443,-0.02947591222847054,-0.01156133434806395,-0.5158218783955142,1.0807828405977509,0.6649215646190414
8.0,-10.0,165.0,4.0,1.0,-1.1628581762541326,-0.3751155407271396,-0.056267331109070895,0.2719587670271757,0.7408531929361009,0.034371130032125885,1.4610863045397857,0.6383585983028673,0.010743694917648823,-1.4762496780562628e-15
18.0,-14.0,157.0,-15.0,-18.0,-1.0806349185787822,-0.3419730754996144,-0.022798205033307983,0.3510923575129379,0.7705793301257979,-0.027337402013569767,1.0082042765671189,0.3435176976607138,0.7614917491145178,0.4579953413265144
23.0,2.0,163.0,5.0,-9.0,-1.0020597257139858,-0.31596477837828374,0.0,0.3159647783782842,0.595819296370478,-0.05560695700900148,0.01246806135932343,-0.7153093078787314,0.01862222046959374,1.971153725279445
-21.0,-5.0,133.0,-2.0,22.0,-0.4911634532161031,-0.24094810912488063,0.08340511469707446,0.37068939865366346,2.140731277224903,1.61385356911225,0.8511910138590175,0.16327841240780083,0.8798613318398041,0.38411393465021815
14.0,31.0,158.0,-7.0,38.0,-1.1436704310988104,-0.4061197041044755,-0.07935672379052994,0.21939800106793506,0.9382765577586163,0.26785352407175234,-0.04291308970341967,0.49446015088460493,0.8999250807904873,-0.12341486368303248
3.0,-44.0,123.0,-2.0,-2.0,-0.6283185307179586,-0.3480613443545528,-0.040682494794687774,0.29381801796163565,2.00248279933853,0.18151356766493665,1.2037698456633081,0.35505408678544936,0.5774613100702399,0.006662942778872494
-2.0,-25.0,188.0,22.0,-22.0,-1.0049475059033632,-0.2987681774307296,0.018107162268529375,0.3440360831020519,0.8963045322921888,-1.8625899433910575e-13,0.9819758409976258,0.4213049132289002,0.04746745962722046,0.9657409005334883
36.0,16.0,152.0,-21.0,19.0,-0.9548913840698461,-0.21007610449536607,0.1241358799290797,0.42970112283143047,0.8403044179814647,0.126462856842208,0.05148939312227235,0.4957874276501769,1.207181606622035,0.02787987411094249
5.0,15.0,152.0,5.0,13.0,-1.115418890036767,-0.2865296231287111,0.061399204956152253,0.36839522973691397,0.6549248528656251,0.10352835472558813,0.11441002899621686,0.23534518766977053,0.044540996279386035,-0.1079802128453283
40.0,16.0,158.0,-19.0,-23.0,-1.2252211349000193,-0.3665191429188095,-0.01047197551196577,0.31415926535897976,0.6283185307179586,-0.1386533192229032,-0.10010487185195663,0.4612918935160891,0.7144938438797496,0.9860229558409855
15.0,33.0,164.0,28.0,33.0,-0.619982629812911,-0.3803254787927943,-0.015629814196964187,0.3907453549241038,0.9950981705400501,-0.03115064046756654,-0.15738286849292482,-1.4217957941311723,0.26162959326210644,-0.11744581265879345
0.0,-26.0,133.0,4.0,22.0,-1.2248623885937366,-0.42537062030661144,-0.056374419558707256,0.3228716756544161,2.198602362789594,0.09999999999999862,1.6588287610929258,0.5008424831513686,0.007947086165520985,0.38337692814399416
2.0,-14.0,160.0,-26.0,-17.0,-1.2293188644481798,-0.46831194836121126,-0.10732148816611087,0.2536689720289895,0.507337944057979,0.38525028564373076,0.6219623904932078,0.3706709716601736,0.6567912596992315,0.850781376574416
15.0,-17.0,173.0,0.0,11.0,-0.6525563375409065,-0.3635671023442195,-0.04661116696720757,0.28898923519668696,0.689845271114673,0.10253900146908523,1.3101868307992164,-0.4353461796799618,0.09999999999999862,0.014141201591199153
30.0,0.0,172.0,8.0,4.0,-1.0227374624095238,-0.2981073320924623,0.013758799942729105,0.3347974652730725,0.7475614635549435,0.1575758190267475,0.09999999999999862,-0.36574442969248855,-0.06373754991828812,0.00030951632004273116
8.0,-9.0,154.0,-8.0,-11.0,-0.9746507328908094,-0.21764045491736494,0.11355154169601667,0.43528090983473033,1.239604330181515,0.11783406307140104,1.6348782877580619,0.6279600311348993,1.0024970174299868,0.5731627016224067
13.0,-5.0,158.0,-10.0,-1.0,-1.043835761305116,-0.24709155702391605,0.09581101190723329,0.40845747181504555,1.245543154794027,-0.07690834684769596,1.4557764642478923,0.6294070908454529,1.1999123477999432,0.40702305857935417
18.0,-2.0,169.0,-2.0,0.0,-1.1618161886410014,-0.3594857265301754,0.005209938065655173,0.3594857265301754,0.7867006479138623,0.1866887346616292,1.4233847597432203,-1.6437150994661294,1.1896149511202005,0.09999999999999862
3.0,5.0,179.0,0.0,1.0,-0.6865732289302198,-0.3536892391458708,0.010402624680760475,0.38489711318815356,0.6865732289302198,-0.0011032314721163491,0.02156867625019599,-1.6516699780140036,0.09999999999999862,2.0625862129364236e-15
18.0,-23.0,160.0,-10.0,-9.0,-1.1541600687817528,-0.357116792582695,0.005175605689604179,0.3674680039619034,0.5951946543044917,-0.275104970979855,1.004661283637374,0.6836722922465504,0.9935547874101991,0.911577881530404
4.0,1.0,173.0,1.0,-4.0,-0.580624384821876,-0.3317853627553573,0.03110487775831494,0.3732585330997775,0.6532024329246102,-0.0004148091475869517,2.0625862129364236e-15,1.5799216435704637,-5.028963356856764e-15,1.3628861298894521
20.0,1.0,169.0,-2.0,4.0,-1.1767838702409927,-0.336223962925998,0.031520996524312395,0.3572379606088725,1.2923608574968046,0.04494422799787645,-5.042841144664578e-15,0.5921733266723221,1.1129506469157513,-0.06823794665018715
1.0,-2.0,162.0,-10.0,40.0,-0.5765873309332896,-0.3071539987214722,0.048497999798126745,0.371817998452308,2.4302886565505952,-1.4779844015322396e-15,1.1081335982485414,1.088487696243709,2.1826771165964516,0.3938815669978254
11.0,-2.0,149.0,-8.0,36.0,-1.2948825372187496,-0.3551365608405854,0.016390918192642268,0.3551365608405854,2.420392253113528,0.160747415929169,1.0711708376803775,1.2824305306634092,2.5057600622870626,0.3512826386759421
3.0,-8.0,156.0,-12.0,34.0,-0.6647738720906733,-0.3967198914089498,-0.053610796136344785,0.31094261759079833,2.3159863930900864,0.01013542008073854,1.2619327680406536,0.3339847380601222,1.482796605930011,0.5741670840755123
11.0,-1.0,164.0,-7.0,57.0,-0.7376810336015445,-0.41784729875332216,-0.056744694892426395,0.30435790896846937,2.233677535310969,0.12236439619822373,0.7015633214295878,-1.0675824066806494,1.7888046251029714,0.3453188757410487
3.0,-36.0,149.0,-14.0,47.0,-2.293290747128476,-1.7756828042029267,-1.1861848692043842,-0.6685769262788348,1.9769747820073071,0.34437994742451983,1.2705708396440003,0.5391263212552233,0.9499360140742098,0.8274845261579514
5.0,-20.0,129.0,-25.0,11.0,-1.1405782245517084,-0.6303195451469965,-0.20010144290380838,0.13006593788747578,0.4602333186787595,0.00010825717170206278,1.3956971127984006,-0.4944605831980923,0.9357734217075431,0.012155389648546575
25.0,2.0,156.0,12.0,-1.0,-1.374742048412977,-0.35431496093118,-0.004724199479082536,0.3165213650985206,0.5432829400944752,0.26015893161945663,-1.4502288259166107e-15,-1.443439516820669,-0.13624492715335804,0.8485513593411855
3.0,2.0,165.0,-18.0,71.0,-0.6886974886247899,-0.40567112343651957,-0.02830263651882703,0.3207632138800385,2.0849608902202528,0.0010229233034578702,-0.012441354768808607,-0.5627743438092643,1.115641701654335,0.770959399788927
27.0,-5.0,174.0,14.0,29.0,-0.678509655952825,-0.41825937695722093,-0.04647326410635788,0.2788395846381473,1.0410011159824162,0.012040343722609592,1.3165926547559423,-1.2361574146014593,0.06985595116257176,-0.5803139405024438
1.0,9.0,193.0,-18.0,30.0,-0.7152329096068981,-0.3983575699076396,-0.03621432453705786,0.27160743402793575,0.5613220303244013,-1.5742615544489524e-14,0.03145828444553253,-0.009271764469904298,0.8999279722000169,0.34518171148572113
20.0,-13.0,192.0,-8.0,17.0,-0.821246212349199,-0.43017658742100906,-0.10863045136894156,0.195534812464095,0.6039853096113155,0.0700560091059178,1.841479365550454,-0.10170863986926237,1.4828216306994286,0.17302918988557114
-51.0,-48.0,109.0,-60.0,-39.0,-0.6865732289302198,-0.3952997378689145,-0.07073784782917425,0.22053564323213148,0.6616069296963931,4.0286001449564885,1.224956229145127,1.4520147660431832,1.1002469928479628,-0.040532271210346665
29.0,-11.0,156.0,34.0,0.0,-0.5123988017887093,-0.2519994107157588,0.08399980357192005,0.37799911607363823,0.8567979964335799,0.3148080611017995,1.4632726774414722,-0.40970334439933387,0.3612302754638806,0.09999999999999862
29.0,-18.0,22.0,-26.0,-18.0,-1.8304320832899208,-1.1164337529286041,-1.051524813804848,-0.869779784258331,-0.7269801181860678,0.09198906993405562,0.12187274764529735,-0.06225865291867335,-0.08153459610192662,0.3302631079297452
-28.0,-32.0,18.0,-28.0,-7.0,0.8567979964335799,0.9743977214342667,1.142397328578106,1.360796817865097,1.411196700008249,-0.20228070794199512,1.2442000410737806,0.5141740348220182,0.07690618579424159,0.5317945673303797
28.0,0.0,187.0,-1.0,37.0,-1.3706948838910882,-1.0005072145190423,-0.5902992565662348,-0.25012680362976036,0.07003550501633349,-0.23868949687499091,0.09999999999999862,0.41569377091603377,0.8558943535666674,-0.13655346745632424
-16.0,-36.0,149.0,-19.0,15.0,-0.7327575358238927,-0.3200550156472173,0.00842250041176884,0.3116325152354489,0.7917150387062746,1.460632174955086,0.26029596838946956,0.3729728303551796,0.7306273491481065,0.03559945651043105
-6.0,-2.0,132.0,-35.0,4.0,-1.2241083091644152,-0.2910467308502809,0.05992138576329298,0.3509681166135734,0.7704178169566251,2.0320934672000166,0.9531470183100682,0.7212737547022087,1.2720924536500662,0.02524003971070031
0.0,-6.0,188.0,-6.0,66.0,-0.7938433049393563,-0.41381193555349416,-0.09289655696098853,0.18579311392197706,0.8698495788165284,0.09999999999999862,1.4284431915520686,0.9557099219573844,1.1695409698309605,-0.5874966411716485
38.0,14.0,158.0,-4.0,37.0,-0.7617229894025055,-0.3170414604540155,0.02058710782168882,0.3088066173253403,0.7205487737591265,0.22174372081582241,0.07818472279706715,0.6293057153193176,1.2475179833367904,-0.0217009665586691
11.0,-15.0,124.0,-34.0,89.0,-0.680815118140869,-0.4019269974566577,-0.049215550708978206,0.22146997819040326,1.7635572337383953,-0.8912046303120471,2.972535592537035,1.1859946759773394,4.005905372316212,-0.40337657729635756
0.0,25.0,143.0,39.0,0.0,-0.5195398703611027,-0.3003589875525128,0.032471241897569225,0.3165946085012967,0.5438933017842791,0.09999999999999862,0.03548295302926541,-0.03630403240588853,0.12071240220620064,0.09999999999999862
34.0,-23.0,124.0,-20.0,-23.0,-1.2410724563724995,-0.3317718447728466,-0.02047974350449655,0.27442856296025564,0.5529530746214109,0.12767136921141134,0.7720347704475459,-0.18807412319446204,0.09832698505913753,0.6796439629544778
-24.0,-25.0,135.0,-21.0,14.0,-0.5859965571462826,-0.3418313250019982,-0.024416523214428665,0.26044291428723687,0.561580033931854,1.165328420657117,0.2215548680991043,0.3883059650093358,0.7191789365672235,-0.05381088447777114
-7.0,-11.0,164.0,-3.0,0.0,-0.5405327592851776,-0.28042676985471626,0.028449092593956227,0.32106833070322605,0.5974309444730914,1.185879983435163,1.009445450732548,0.02355852690371174,0.7294229853286738,0.09999999999999862
-13.0,13.0,137.0,11.0,57.0,-0.31498818162641706,-0.29012069360327875,0.04973497604627619,0.3232773443007968,1.881639927084124,3.33002459209111,0.11330893218867835,0.43765804770943584,0.012157461360159175,0.8868271865867733
12.0,-36.0,122.0,-25.0,14.0,-0.6249404741011957,-0.3546959447601381,-0.008445141541908008,0.27868967088296515,0.5742696248497472,0.09087696498507042,1.2687267258866997,-0.3125228023321553,0.6142271591253903,1.3418844112874513
14.0,-10.0,193.0,-14.0,-6.0,-0.5608480844663659,-0.36687055149303616,-0.03795212601652098,0.24036346477129955,0.6451861422808571,-0.1215666346848338,1.099978029790313,-0.5415677230856373,1.0596605910019634,1.270143769938271
-25.0,-26.0,134.0,-44.0,15.0,-0.4512314651497533,-0.29798304302342205,0.04256900614620296,0.340552049169625,0.9365181352164695,1.8296720729943967,-0.15617735789198495,1.5407561693478715,0.5859576430826068,0.1542731450601649
23.0,-34.0,144.0,16.0,4.0,-0.6434587362774273,-0.40794442757457805,-0.07990664045275242,0.21448624542580896,0.7107485387639558,0.283045969820761,0.9376489756253918,1.6515569300751722,-0.04381729057160397,0.017583405945975863
-5.0,-7.0,152.0,-2.0,27.0,-0.5119935876124173,-0.28262046036205435,0.02867164090629526,0.30719615256745003,0.6594477408447941,1.1778979550280604,1.1865106806691323,-0.19404440487825658,0.9174577548851263,0.009707302108380958
10.0,-39.0,128.0,3.0,74.0,-0.5948317086039578,-0.1365909849386866,0.21590187941921446,0.51552081412343,2.207486563041355,-0.4500003809463898,0.8371463236653852,-0.44910739354969353,0.009999998318184544,0.0913228856866567
20.0,3.0,49.0,-23.0,-3.0,-1.6559133691335364,-1.1761627668612034,0.727363816348376,2.213043100804632,2.4916079666401805,0.1194689096765918,0.9636210034046386,1.2716633641917796,0.9467756746280132,-0.013955677000291261
-13.0,-26.0,170.0,4.0,3.0,-0.6115633698988132,-0.30159289474462003,0.05026548245743667,0.31834805556376544,0.7791149780902686,1.3601804990085518,0.8029879074815426,0.4638286611612038,0.008246007121682893,0.014661020327315533
15.0,7.0,155.0,0.0,10.0,-0.6713540465205585,-0.27542730113663927,0.0430355158025999,0.3701054359023592,1.0844949982255176,0.15468121809236582,-0.01783111509779687,0.6587902632544655,0.09999999999999862,-0.010593901016048603
2.0,-14.0,181.0,-1.0,7.0,-0.5416539057913439,-0.29899295599682185,0.012999693738991791,0.3249923434748063,0.8363136305418344,-0.011903944879394177,0.9480507868618899,-0.680900778614081,0.6057092351434996,0.01617291164497036
-13.0,-25.0,197.0,-8.0,5.0,-0.7289883505567474,-0.3297804442994807,0.0,0.32110201155475737,0.546741262917561,1.151331580423316,0.9643155334756934,-0.33339743338120975,0.7630966420955779,0.07800557966240466
5.0,-15.0,152.0,0.0,15.0,-1.28500164626997,-0.36530147134765034,-0.021488321843979197,0.28794351270932417,0.9497838255038911,-0.0741203933218289,1.9731875132760501,-0.12332097988252633,0.09999999999999862,-0.19147778107167307
1.0,-10.0,165.0,0.0,-2.0,-0.675831535648391,-0.42188271619263196,-0.10239871752248364,0.18431769154046984,0.348155639576444,5.629177679544739e-15,2.2852850016050463,-1.3084686815443667,0.09999999999999862,0.9102299035267537
3.0,-33.0,150.0,-21.0,13.0,-0.5566886610450315,-0.3464705652657889,-0.05060806009500274,0.22189687887808907,0.5177593840488752,-0.006973163753284736,1.0628487163251124,-0.5889584513983138,0.7454219607556624,0.032668374208471546
-11.0,-9.0,140.0,-5.0,34.0,-0.3337222965351794,-0.30303518880780667,0.019179442329607888,0.2800198580122766,0.4718142813083568,1.2060334005943703,1.1533144751778281,0.8569673720315891,0.6875354827826841,-0.1290100166400885
-17.0,3.0,140.0,21.0,21.0,-0.678645014974494,-0.3050089954941546,-0.007625224887354065,0.2897585457194469,0.503264842565355,1.9359545752867056,-0.023798583433782057,-0.9690128916648972,0.19793997927269616,0.1928692295947266
13.0,-4.0,143.0,-5.0,15.0,-0.6968894735721127,-0.3242213058864909,-0.04844686179913049,0.1975141288733795,0.8981302841223489,0.09114659922943077,1.8125746140840477,0.24222230103523268,1.7052245792716705,-0.1810341059544966
11.0,7.0,156.0,-14.0,68.0,-0.6583747702283849,-0.3721248701290869,-0.09303121753227162,0.2647811575918504,1.545749460536208,-0.0985279518846253,-0.03480941377851971,-0.12391271451861874,2.5386094344976127,-0.9096640572239153
15.0,-10.0,178.0,9.0,19.0,-0.46983640131811644,-0.2314119588581769,0.04908738521234035,0.30153679487580565,0.7994231306009745,0.02493967549371126,1.0969442007133794,-1.165289278512335,0.06652648297822408,0.210472151498187
18.0,7.0,150.0,3.0,10.0,-0.32769447180301725,-0.25645654315018707,0.021371378595849144,0.2564565431501875,0.4844179148392427,-0.1819126399780322,-0.06348746101643385,-0.20472675743585844,0.009030065073942217,0.06474473094991673
1.0,-8.0,164.0,5.0,14.0,-0.3931583788703015,-0.22413701972979805,0.06981317007977283,0.3270195861631482,0.5989235117370013,-8.609432611272894e-15,1.5061528153351191,-0.19092848913026939,-8.254033557621165e-06,-0.17500462157338748
5.0,-10.0,168.0,6.0,18.0,-0.5042062283539175,-0.17841143464830944,0.10859826456853616,0.3723369070921234,0.674860644104474,0.0006978320825353421,1.7343285543997795,-0.8693508666160752,-0.029088622537487653,0.0184696803511235
-1.0,-26.0,134.0,-15.0,46.0,-0.49520691260873173,-0.34466401117567713,-0.04357820830956838,0.2416609733530608,1.7629366088870846,0.4625399060411428,1.2733920115095914,-0.45182443907758474,0.7201222362189647,0.32634249163453644
-1.0,-9.0,183.0,6.0,8.0,-0.47360693270197896,-0.284164159621187,0.023680346635099436,0.30784450625628645,0.6551562569044043,0.6604623990727053,1.4475219284998802,0.2268504574467216,0.027061385740572062,0.10655312394933064
16.0,-24.0,144.0,6.0,11.0,-1.2011971910784502,-0.39269908169872414,-0.08469980193501891,0.16939960387003783,0.29259931577551956,-0.2648075558193361,0.9605138668899811,-0.45092737231760927,0.023779555893204914,-0.10504966052578828
-19.0,-53.0,155.0,0.0,15.0,-0.7341562903406755,-0.3167679425327785,-0.01863340838428096,0.25714103570307945,0.5850890232664265,-0.1761574906393558,0.8840528917110348,0.06707098190094607,0.09999999999999862,-0.160072944207422
10.0,-24.0,116.0,-27.0,-5.0,-0.2559816236258352,-0.10859826456853616,0.15514037795505153,0.4188790204786388,0.6283185307179586,0.10932404317774837,3.1619507653726373,0.11309732319013088,0.43183805178495616,0.3105752164036907
-14.0,-48.0,113.0,-18.0,8.0,-0.49780229797228426,-0.17987814128410262,0.10458031470006013,0.4225044713882413,0.6483979511403706,1.5369569588932408,0.20464602710017332,0.14466818680305815,0.10990045451754929,-0.24385126638105808
-10.0,2.0,133.0,0.0,14.0,-0.5000902591428651,-0.33766778181441337,-0.04701703291086767,0.2094395102393194,0.4317018476361487,1.681938856225591,-0.011966182555946189,-0.6838346712489753,0.09999999999999862,-0.12089818907809899
21.0,-22.0,144.0,-18.0,20.0,-0.5470847365090403,-0.34814483232393467,-0.024867488023138318,0.240385717557003,0.33156650697517565,-0.0031521709192370573,0.9854750857279684,-0.46889977183148224,0.856496650352247,0.11582761201333264
27.0,-12.0,20.0,-33.0,-4.0,-1.668380868138868,-1.3158173639283903,-1.114352504379546,-0.9506623059961097,-0.698831231560054,0.08153489405027017,0.07129307672921702,0.023911095002572533,0.11807181708156209,5.6152998917369246e-15
74.0,-18.0,66.0,-5.0,188.0,-2.4359943035856686,-1.0583975250061872,-0.15119964642945538,1.2935969750075618,2.4359943035856686,0.5232027583797944,0.1441723090948202,-0.24756545772188476,1.4818170196552516,1.485641542822425
-14.0,143.0,-13.0,31.0,-2.0,-1.8523541589562458,-1.333694994448497,-0.8150358299407481,1.9560859918577957,2.9489478210583435,1.696374608052159,0.5914689464852028,1.38057648897879,0.544927530087023,0.5843736493908807
9.0,3.0,180.0,2.0,-3.0,-1.0941408896985143,-0.2708269528956717,0.11916385927409534,0.48748851521220926,1.191638592740956,0.11491994901582989,-0.010000003512180222,1.7836496514622753,0.01255745295211807,1.5366258522822869
17.0,-8.0,170.0,-21.0,-2.0,-1.2352042928835991,-0.36661314628965247,0.005640202250610127,0.33277193278599215,0.8629509443433365,-0.14711611533258429,1.3892954292145903,0.5704521585391213,1.0921687299873624,0.6956130617286634
13.0,-3.0,145.0,-5.0,-6.0,-1.2313201975608348,-0.356737627330709,0.046030661591059285,0.43729128511506277,0.9206132318211848,-0.052767021805585124,1.3579036289429305,0.337979753108701,1.2565126251566086,1.1228831668181436
-7.0,-13.0,154.0,-3.0,-14.0,-0.7941572507215837,-0.39707862536079164,0.011678783098846512,0.39707862536079164,0.8175148169192767,1.8414656135091634,1.1410986940408194,-0.5920653668462932,0.9578731070811828,0.7564618813258001
-9.0,-15.0,140.0,-11.0,21.0,-0.7232027287269318,-0.39920790625726665,-0.005785621829815568,0.3876366625976355,2.493603008650462,0.37044205665489693,2.05198328509923,-0.5550483924613421,1.008052454973266,0.5273667388460112
12.0,-7.0,147.0,-6.0,39.0,-1.3350348527913225,-0.4374369517656671,-0.028404996867900323,0.35790296053554593,2.437148731265861,0.30853379172352735,2.436889524001801,0.4000974496682097,1.9457912280193157,0.7058826470289116
-4.0,-4.0,160.0,-20.0,-2.0,-0.5915613223395773,-0.30439563188347174,0.07466307951858742,0.4307485356841583,1.269272351815986,1.5710377559262683,1.3180039445623586,-0.768461608657153,1.1115561102696412,0.48285257280650995
8.0,-6.0,132.0,-19.0,25.0,-1.1943712610944979,-0.48114482082005816,-0.10755001877154236,0.23208161945438066,2.349118831062638,-0.22447181640265246,1.7072843643933155,-0.47394478689249875,1.0708509817313492,0.5599235341528924
14.0,-6.0,165.0,0.0,1.0,-1.279115237151551,-0.42280378131787666,-0.058871412588564986,0.2836531697449045,0.701105004463821,0.1388881058844823,1.6921463148076215,0.20579906156766614,0.09999999999999862,9.166278847061449e-15
2.0,1.0,167.0,9.0,12.0,-0.7754564144936831,-0.4970874451882583,-0.15906798246024278,0.1789514802677732,0.8152234101087439,-0.01234761510197093,-1.4762496780562628e-15,0.7804224620418004,0.07379152912101566,0.1150850906625232
7.0,-1.0,165.0,-1.0,-3.0,-1.1386558526111474,-0.39784361115329236,-0.08688538634382237,0.260656159031468,0.6813643455383978,0.011421103600236196,0.7941240515947487,0.05271510480746744,0.8185827026189745,1.6782883500611043
4.0,-2.0,153.0,0.0,39.0,-0.45543798824230697,-0.16730375078288873,0.15800909796161644,0.446143335421036,2.2400113299264497,-0.03452513993052763,1.2804107773514795,0.7762597925900344,0.09999999999999862,0.13399159635511493
10.0,6.0,152.0,-5.0,1.0,-0.6649383223855696,-0.3565611293951605,-0.038547149123801194,0.26019325658565773,0.6938486842284206,-0.04431178906895125,-0.020570807226080505,0.12991365882189077,1.0864785073405892,2.6945459752347745e-14
19.0,10.0,159.0,11.0,4.0,-1.0756282539440165,-0.35538378434273676,-0.023692252289515547,0.3174761806795119,0.6302139109011198,0.28993601632670896,-0.10366742416584726,0.15937724756731897,0.029076771736340365,-0.03626386884352827
7.0,-2.0,171.0,-13.0,-8.0,-1.065650371482,-0.39212243106480527,-0.06919807607025952,0.28140550935238995,0.5766506339188315,0.053427723724232,1.2053239228824784,0.7102763691330554,1.2089077462092228,1.2459777239516527
17.0,6.0,178.0,1.0,-3.0,-0.9752869897410372,-0.3101142962771042,0.0044944100909725115,0.32809193664099423,0.5977565420993454,0.18967749103970952,0.012198254998532575,1.5330037933432288,1.2720727249337926e-14,1.070781718741801
12.0,-1.0,175.0,1.0,44.0,-0.8635878765439995,-0.19138974561245403,0.13537323470149198,0.4528001298636104,2.2266563087107443,0.0003327747525509184,1.0112749849927212,1.2252158769453867,-3.2526065174565133e-15,0.2823771597536616
20.0,6.0,154.0,4.0,52.0,-1.0273454649179894,-0.29281827260947546,0.06451928040547772,0.3722266177239093,2.2581748141917153,0.44530059425421387,0.1106818146887128,0.09707014952339896,0.014443623400284607,0.4905286042214051
19.0,-1.0,174.0,1.0,-7.0,-1.1170107212763707,-0.3390925403874694,-0.01994662002279224,0.3091726103532815,0.5585053606381853,0.1028153939653208,0.7904786881638931,0.14272830951024207,1.2734605037145741e-14,1.1953909029252137
12.0,-3.0,162.0,-11.0,-3.0,-1.07642166890441,-0.36530147134765034,-0.024353431423176808,0.33607735363983826,0.8718528449497258,0.025209994622171022,1.1577131251625183,0.604072877996026,1.1992696969965544,0.7504651105158335
14.0,4.0,161.0,-3.0,43.0,-1.0791730489430589,-0.3597243496476863,-0.02398162330984599,0.34053905099980986,2.115179175928395,-0.20377092197739352,0.03555359454694907,1.3758396593198818,1.7529893564518422,0.2325633205729667
27.0,2.0,176.0,2.0,3.0,-1.0181087303300256,-0.2811919350435308,0.04848136811095394,0.358762124021057,0.6690428799311596,-0.14710150496365818,-0.012504787227354828,1.5884403351875371,0.0124849330811102,-0.022626738691629122
18.0,5.0,143.0,0.0,6.0,-1.131753875206261,-0.37074695911929245,-0.03902599569676779,0.2634254709531816,1.1707798709030284,0.231242292189119,-0.02209972047434549,-1.2953359557012347,0.09999999999999862,0.027572827865105606
20.0,-8.0,164.0,0.0,43.0,-1.0947974398873521,-0.3712791317878845,-0.038079910952603324,0.2855993321445265,2.065835169178743,0.2475379210668209,2.460690455555361,1.2817821615651277,0.09999999999999862,0.3766994855881961
16.0,0.0,165.0,-7.0,2.0,-1.031637409276886,-0.322094937738032,-0.004668042575913578,0.3407671080416863,0.7515548547220754,-0.050845360578733095,0.09999999999999862,0.841586391663141,1.56034906306123,-0.012564722111148572
17.0,-4.0,170.0,0.0,-2.0,-0.8968977466566805,-0.17153782039881849,0.17153782039881849,0.4754048165338687,0.7792718126689193,-0.15012332591924288,1.6705558459181185,-0.822169862923301,0.09999999999999862,1.1089466470729499
2.0,-1.0,138.0,0.0,11.0,-0.6551432955761967,-0.3559439952343113,-0.005158608626584016,0.31467512622163785,1.0987836374624393,1.0904238285971632e-05,0.676332947002673,1.5888603383029034,0.09999999999999862,0.10793062493649856
-3.0,4.0,159.0,2.0,-3.0,-0.5909926774079808,-0.290312192410938,0.05184146293052505,0.4147317034441973,0.839831699474499,1.1645851083838203,0.017429033613860397,1.4497022304696314,0.00326772890605153,1.036198911045434
6.0,-2.0,149.0,2.0,35.0,-0.6115912487021729,-0.36068201846538406,-0.015681826889799133,0.3397729159456513,2.263410347761033,-0.04826316200158021,1.2015018794505008,-1.2887797731255843,-0.012569608514265371,0.4027272532939449
1.0,0.0,155.0,-2.0,41.0,-0.7382997322050566,-0.41242950557661784,-0.06619238978390163,0.2902281705909533,2.1436150845401993,1.62456853525228e-14,0.09999999999999862,-0.6606395735137798,1.255132525469158,0.4188922689148601
6.0,-18.0,169.0,-12.0,-17.0,-0.9551766767504994,-0.03864876726736144,0.3478389054062512,0.7784965978139913,1.4410468938258978,0.2804480531189921,1.1617283752842342,-0.6302347656912481,0.9469506553005387,1.3286327984728055
0.0,-27.0,172.0,-50.0,-53.0,-2.4828716133209654,-0.3040250955086896,0.4813730678887591,1.4187837790405515,1.7228088745492416,0.09999999999999862,1.0244425578910552,-0.7952074740160611,0.6400629857820435,2.1687205588298806
44.0,64.0,73.0,58.0,62.0,-1.1279902406064242,0.6432341041474654,0.8669677055900618,1.2771459749014884,1.4635906427703187,1.0780331733744206,-0.10170742369426616,-0.13046169206615696,0.08283494794104206,0.05667903354100046
29.0,36.0,126.0,-19.0,-5.0,0.055767916927629724,0.46473264106357925,1.1525369498376756,1.7473947303990567,2.7512172350963873,-0.10789412793880039,0.05824035390261073,0.7314445671525278,1.0688590448086102,0.006972168823074033
36.0,-25.0,121.0,39.0,62.0,0.23337545426667017,0.5385587406153931,1.1848292293538654,1.7413399279897712,2.7466495771385047,-0.09740149837753104,2.3862464296879193,-0.41905359362883976,-0.013202927008216708,-0.2905369488750861
59.0,-44.0,76.0,20.0,14.0,-1.2370021073509812,0.35342917352885195,0.9817477042468106,1.6297011890497055,2.022400270748429,0.0999932371463402,0.43018044025904206,0.28992555793478514,0.014611682986759772,-0.07337299799830002
66.0,-34.0,104.0,-57.0,-59.0,-1.2566370614359172,0.30402509550868917,0.993148645328386,1.7633455539504004,2.1687123479619865,0.08437332514896387,0.6819433274756846,-0.7091835475582484,0.8036154784206448,0.1526540911297536
-1.0,-25.0,118.0,23.0,15.0,-1.7889624832941877,-0.9599310885968815,-0.589048622548086,-0.20725784867432662,0.14180800172453933,-1.601149768326593e-15,0.7736010202873005,-0.059510990447074225,0.03365393181300563,-0.12252494205111576
70.0,62.0,133.0,-13.0,40.0,-0.9410732091975387,-0.24814368202721182,0.07959325649929472,0.37923845743781426,2.1396540129516177,-0.26492486102591895,-0.2307769887041159,0.336579915264692,1.0952088335462575,0.8503156205326035
-47.0,-1.0,45.0,-24.0,39.0,-2.396377652040586,-2.3525414754788683,0.10228441197734206,0.5260341187406161,0.8328873546726427,0.0941167503337724,0.02342480739611629,0.07273184189104573,0.10000003363656593,0.10000000000002704
0.0,-3.0,153.0,48.0,-2.0,-1.164143470619568,-0.9089887373330874,-0.5475195318439066,-0.17541887913445509,0.36678492909931615,0.09999999999999862,0.7273128946123949,-0.7485932010770513,0.4971323268323563,0.6257203566133274
-14.0,2.0,127.0,-31.0,31.0,-0.9659494653278964,-0.3069372132817616,0.009027565096522139,0.3159647783782842,1.9950918863314486,2.0732240904599926,0.01240772963169544,0.3807081923446404,0.9725619342648515,0.6960868984232945
-9.0,-21.0,125.0,7.0,31.0,-0.8627657436724205,-0.2063135473999269,0.1312904392544989,0.4220049833180317,2.175670136217409,-0.00946881774757951,1.6885488197394474,-0.2730430372786238,0.011464325582716768,0.681784594807182
-13.0,-31.0,100.0,-50.0,-5.0,-0.9870713760082763,-0.24551521535231258,0.09519977738150898,0.3958306533231162,0.786650792047205,1.785969189209871,0.2660225152625617,0.07759333531351834,-0.013946779552662214,0.6554159581553543
30.0,-8.0,125.0,6.0,13.0,-1.0611369528764194,-0.29795471090618664,0.05750003192926423,0.38159112098511594,0.8415913764192289,0.2393186642924039,1.17779728200142,-0.6887630402060779,-0.020721398618307775,0.12046128294775638
19.0,-20.0,123.0,-25.0,56.0,-1.1529750816204964,-0.3596436034412558,0.0,0.33848809735647567,2.2953724101986026,-0.12426758254152247,0.773095163509501,-0.335440090039819,0.7386076795555553,0.3642580005526582
1.0,-22.0,124.0,-23.0,35.0,-1.17874633448741,-0.38945363474253636,-0.036349005909303234,0.33752648344353187,2.2380602209871086,0.44402377701683704,1.1644071467231378,-0.39188788596741875,0.871465088851489,0.2230270248763849
-2.0,19.0,140.0,-4.0,36.0,-0.6986745714826443,-0.47392610792878687,-0.1319175764337861,0.20031928273278643,1.9983069911636475,0.7217271435809551,0.1130273637752658,0.2460181946831086,1.2025168050034218,0.5456103503137072
0.0,-21.0,175.0,4.0,32.0,-0.6883264802809097,-0.4853584155826929,-0.17649396930279737,0.12354577851195803,1.756114994562834,0.09999999999999862,2.3510463980595144,-0.6014946375414012,0.00900370423582187,-0.5339161896032693
-5.0,14.0,175.0,-19.0,35.0,-0.8717056538806842,-0.20713797715976634,0.10356898857988384,0.38838370717456216,2.028226026356047,1.9746464605778642,0.07897817087558784,0.4679174262551471,1.4220046499679513,0.65161818741432
10.0,-17.0,160.0,7.0,35.0,-0.562944348331119,-0.26331267905810396,0.05447848532236632,0.32687091193419837,2.061102694696194,-0.054765911351823994,1.8219505352618683,0.5831430173617549,0.03588197334418764,0.6078275569308914
-6.0,-14.0,148.0,-1.0,6.0,-1.062462821622204,-0.34804816570382524,-0.027477486766091186,0.24729738089482334,0.5770272220879211,1.902049762403243,1.3747949458249509,0.6529290461510002,0.77151924475742,0.0390802298497789
-4.0,5.0,158.0,-2.0,39.0,-1.0263725998943927,-0.3748491234396911,-0.05354987477709905,0.2498994156264609,1.9188705128460386,2.4440835824933616,-0.03620859360317894,-0.6416397187360849,1.5388893354242819,-0.5676487579239243
0.0,-10.0,135.0,-12.0,54.0,-0.986615874681092,-0.3288719582270305,-0.03461810086600314,0.25963575649502424,1.8953410224136764,0.09999999999999862,1.998632054255202,0.7446016400785161,1.5198370976173963,0.2288013755644428
7.0,-28.0,118.0,-12.0,-8.0,-0.9068071818159322,-0.2621575264965492,0.030083650581571586,0.33092015639728345,0.8466398806527895,-0.30453943435439385,1.3228829835005116,0.39288640384313067,0.8006550237341287,1.0574624158912924
26.0,-9.0,131.0,-22.0,26.0,-0.8641630221908887,-0.17103226480861355,0.1350254722173263,0.42307981294762254,2.1334024610337563,0.2883791969832066,1.024868397494439,0.38034991561160536,0.9979008530370221,0.5743857250969441
32.0,16.0,112.0,9.0,25.0,-0.9607316983455023,-0.24979024156983076,0.08646585285109554,0.3842926793382011,2.2000755892112007,0.017765782579267864,0.1610056318544853,0.3388892328332269,-0.052777112268296726,0.4761846212215758
21.0,-2.0,124.0,1.0,-5.0,-1.0537940712041354,-0.31168557035615274,0.024736950028266147,0.3314751303787653,0.756950670864942,-0.19773404532171057,1.0167267973786829,-0.6554885078330182,2.076464000744238e-15,0.7406590674552356
119.0,-15.0,-8.0,-17.0,41.0,-1.3258097437167935,-0.8790695039861349,-0.3314524359291986,-0.028821950950364883,2.003125591050373,-0.576218615814708,0.4738166992460563,-0.0017934516656175764,2.5818214282918954,0.7121030917754417
8.0,5.0,142.0,-2.0,33.0,-1.1944074305980366,-0.341259265885153,-0.01003703723191629,0.32118519142132085,2.278407451644994,0.1273696209064875,-0.040768770771194,-1.3154110316536776,1.3399742261892187,0.28157104307107017
20.0,5.0,145.0,-7.0,-11.0,-1.1866077515106959,-0.40850430789712444,-0.06808405131618755,0.26260991221958063,0.7878297366587406,-0.030057275733433947,-0.034557010321891825,0.4520428044815916,1.1101049953893765,0.9465613762942254
13.0,-6.0,163.0,-8.0,-6.0,-1.075887895064998,-0.29168516266206623,0.023908619890333327,0.34906585039886595,0.9706899675475311,0.04105554944259156,1.2569980567197576,0.6830813725505043,1.1856072149930184,1.0456504637504183
14.0,-5.0,153.0,-22.0,-7.0,-1.1012259529275301,-0.3670753176425099,-0.033370483422046515,0.26219665545893545,0.7198489995327142,-0.052948718800576874,1.1532282992935754,0.5971556318455192,0.9014456997266707,0.5261004173091507
6.0,2.0,158.0,-5.0,53.0,-1.0503235140359908,-0.34698187517260415,-0.01875577703635667,0.2813366555453549,2.1475364706628737,0.011443549761194875,0.012451998438793738,0.914176381536175,2.0168266634752268,0.22181309676640948
2.0,-6.0,159.0,1.0,2.0,-0.5983986006837703,-0.30854927847756874,0.009349978135683834,0.317899256613253,0.7479982508547129,0.012482927696025539,1.9855332137918205,-0.04612482428582387,-1.4762496780562628e-15,0.013469840426618135
0.0,-4.0,140.0,-14.0,-20.0,-0.9963472907439557,-0.2621966554589359,0.06197375492665724,0.36707531764251033,0.7198489995327142,0.09999999999999862,1.2103449004477107,0.5352744185595547,0.9135356899873471,0.8505835990081664
6.0,-10.0,137.0,-14.0,-14.0,-1.1116404774240807,-0.33832536269428504,-0.009666438934122557,0.2803267290895506,0.8989788208733875,0.3187729620422376,0.8354665024283875,0.3629815962356545,0.7422746954333505,0.5526395453489371
24.0,-7.0,159.0,8.0,3.0,-1.0471975511965979,-0.323328276175908,0.004825795166804703,0.323328276175908,0.7093918895202758,0.08452035766554541,1.4536604492669363,0.7251652883923667,0.06940768108687771,-0.009977249405574207
0.0,1.0,153.0,0.0,39.0,-1.0762863720631697,-0.32967330315448473,0.00969627362219061,0.32967330315448473,2.259231753970438,0.09999999999999862,2.076464000744238e-15,1.143476629273297,0.09999999999999862,0.2744428168531051
13.0,-6.0,129.0,-20.0,43.0,-1.0636888512154417,-0.29189601033353973,0.04452651005087871,0.34136991039007203,2.3203259126513593,-0.258300584536723,1.2989009916672338,0.5720583421878679,1.869760508549421,0.4461183910866836
15.0,-6.0,146.0,0.0,36.0,-1.1510795482753,-0.3870442149222626,-0.025132741228718558,0.2865132500073888,2.2870794518133692,0.2834438460130665,1.5615952249074838,1.1115368648621058,0.09999999999999862,0.44181845829856525
6.0,-2.0,141.0,-24.0,-23.0,-1.1266058963110317,-0.38215266086321353,-0.03474115098756503,0.30274431574877925,0.8983069041070344,-0.003741919191847423,0.9075224238531363,0.36269118396438527,0.8848618088857294,0.664647287789235
12.0,-4.0,158.0,13.0,38.0,-1.1604955861019484,-0.40301729559189026,-0.06312319087583829,0.2864821739749579,2.160755379980615,0.2003234881881109,1.6449837743339253,1.1475542763957434,0.10023958176343772,0.37010200598499166
25.0,2.0,150.0,0.0,-4.0,-1.0914898947517409,-0.3891398755201858,-0.037964865904408285,0.2847364942830626,1.0819986782756388,-0.1406946797580136,0.012396510458780314,-0.6127281870586763,0.09999999999999862,0.7344066688540516
10.0,-20.0,140.0,-32.0,-25.0,-1.0314974379852542,-0.3249923434748063,0.014130101890208913,0.3155722755480004,0.6923749926202394,-0.1183360602437087,0.8489633776922701,0.3823581595679699,0.2852623987918957,0.8490497718635467
26.0,5.0,163.0,0.0,7.0,-1.0216171529994287,-0.2925758043801183,0.043166921957722426,0.34053905099980986,0.7434303226052186,0.1725212395053638,-0.02253547138693223,0.6816625629545445,0.09999999999999862,-0.05423358728066104
1.0,-10.0,142.0,-25.0,-14.0,-1.0203892938859647,-0.24630086404143992,0.09550441666912945,0.4071504079052368,0.8394335570391931,0.19318411416233228,1.5514666223818758,0.5005803888856647,0.830595177536614,0.8818182763227668
18.0,-9.0,135.0,-19.0,45.0,-1.1140773948024307,-0.29039932092006504,0.058079864184012564,0.3643191480633541,2.465754233994006,0.38049008772837795,0.8840480656835353,0.47832519630110903,0.9884707597995495,0.7869802453409015
5.0,-15.0,151.0,-28.0,22.0,-1.1848913468556659,-0.3152463216404984,0.04348225126075844,0.38046969853163626,2.5111000103087964,0.37787983292853367,1.675987368459618,0.6089147545601841,1.1676985558155466,0.4026992419432659
