Numéro enregistrement,Numéro battement,Amplitude 1,Amplitude 2,Amplitude 3,Amplitude 4,Amplitude 5,Centre 1,Centre 2,Centre 3,Centre 4,Centre 5,Ecart-type 1,Ecart-type 2,Ecart-type 3,Ecart-type 4,Ecart-type 5,Période interpics
10,211,-0.09371759034740856,-0.15446837452555515,0.7047298901123018,-0.10837196233983067,0.182980189482305,-1.481965259976365,-1.1181407784815198,-0.8297032923502151,-0.5122341498010057,1.5297342536817633,0.012521093959552516,0.005112771618714344,0.022275089394253593,0.002277209951482947,0.016164863651947817,1.342
10,212,0.08278838837129418,-0.17462400827802826,0.5508362711631831,-0.1593723202973008,0.2932404705514407,-0.9454223351919495,-0.14463111618814728,0.07595856047800942,0.3436121424535347,1.929497329635843,0.010979262176668237,0.005249444149983937,0.01908516293086629,0.005626112225583503,0.01720926383542841,1.708
10,213,0.010716237822110121,-0.19481613772798625,0.5487725798588089,-0.1915619541889905,0.24554861184207277,-3.000924402583702,-0.2958544056335316,-0.06925956330814068,0.1944018113257488,1.8292500586468468,0.010004117112498738,0.006121290797182896,0.017490903814340993,0.0058400737006711915,0.014895719818672935,1.588
10,214,0.004171713228612481,-0.163457968028024,0.6241203115400166,-0.1427353869223336,0.1985012155390272,-3.0663449346957448,-0.3055584662783379,-0.06276362002211355,0.18535375959041625,1.7418798157043822,0.010000926951268694,0.005693880946997306,0.019113895819918486,0.004817823871403526,0.01360192901696501,1.628
10,215,0.06381165418201826,-0.1589272711333498,0.6871545589995293,-0.14215622817327914,0.011289598689864061,-1.5861052416486818,-1.1226390974469753,-0.961616686709967,-0.7860829088969303,2.8467516941501105,0.01017284139305792,0.003957155464959253,0.021685486790194573,0.0014038085307184886,0.009996161436998689,1.712
10,216,0.3683628359664694,-0.10756173354814716,0.7670548611299586,-0.10975533544368041,0.0011600361564960279,-2.0516099631923206,0.9248499139691668,1.0869650969242732,1.2786758661914353,3.0268789097888202,0.018914448030261398,0.004014073041475633,0.024837151276215004,0.0014386897839486759,0.009999944714385615,3.232
10,217,-0.00904685879347237,-0.09326892007418129,0.6643000720367119,-0.11812800379309102,0.005822733991359285,-0.7505871144708164,-0.3327237889637124,-0.10839299194542037,0.15449248075229607,2.8552899484428274,0.010026080770484834,0.0035615128028525468,0.022133122579015764,0.00382875760207342,0.010001943367572595,1.588
10,218,-0.10324523335046452,-0.07534350494430625,0.6823981616354349,-0.12260849888250769,-0.0879772624243965,-3.142487889552597,1.3618895244342075,1.6997435436075814,2.1105962638230897,2.1105327628059536,0.009077462378003871,0.0027465974368516147,0.009640726911513358,0.0021641975444800722,0.010854225849299222,1.66
10,219,0.12196077969520061,0.030589251016716747,0.16157075950340233,-0.009908729077602646,-0.18965865234540674,-2.743292454225474,-1.8906417248172795,0.24166097335305803,2.2602378080605985,2.2587975477375064,0.00907576747010262,0.0010001090882065236,0.001,0.0010141105607345815,0.008699847061270178,0.488
10,220,0.31778420978276184,-0.49944912377947215,0.3149593271151984,0.015239274475546271,0.2487556355092898,-3.1415302218272956,-3.14159265358979,-2.538673352826872,-1.9417884245994865,1.7813398428501213,0.010222018807351614,0.001,0.003235568074968021,0.0009999901559004367,0.009277007343313727,0.396
10,221,0.2991973728863693,0.01697700924938901,-0.026494264386280785,0.014524532721378578,-0.03165641192231485,-3.1416267348275273,-3.140894126621437,-2.543224756497849,-1.6829960644231035,0.5241482333288421,0.009849309850890149,0.0009280828334044534,0.0008570340743901694,0.0009999999999954204,0.009763359017154567,0.396
10,222,0.16448117947538732,-0.05847913072829532,0.4877852804219729,-0.07870111307300628,0.1096809794498442,-3.141594100205329,-1.5935614909513443,-0.2276516415644806,1.365909849386866,3.096116843321512,0.009993361623078052,0.001,0.001,0.001,0.00999455503062084,0.276
10,223,-0.6439087331638103,0.8052567348932573,-0.00805088636591107,0.013130848428528557,0.09826763372913386,-3.1415926128636578,-3.141468674199849,-2.146754979952981,-1.5184364492350666,-0.5224746827133802,0.010000486209330818,0.0018305403274772028,0.0010000000000073552,0.001,0.011499453772733466,0.324
10,224,0.046296396691986694,0.03668262010800348,0.04733727810707421,0.035502958581207875,0.03445105480545695,2.7755575615628914e-16,0.0,0.0,0.0,-1.3877787807814457e-16,0.009938306986609037,0.001,0.001,0.001,0.009954092204420934,0.156
10,225,0.32030802436420136,-0.5522468234387353,0.018272531548290633,-0.0002762839453870159,0.21586281948363836,-3.1415787486238167,-3.141592654327973,-2.5097916992616134,-2.1236464307122147,0.4342262752580147,0.010052796199879433,0.0010000000000033307,0.0008771076600181941,0.0009999989582658011,0.011167843027170927,0.476
10,226,-0.023931038488026864,0.3903812814370038,-0.024749403433332314,-0.012505750914815547,-0.2700918415592009,-3.141592693962541,-3.1398576288601903,-2.3561944901417253,-1.7278759594743862,-1.7248149005483693,0.00999984042641895,0.0037207265517662,0.0010000015705080292,0.001,0.012621968527414358,0.16
10,227,0.7706914020244757,-0.4576518984328153,-0.01123603246062449,0.07973774673782619,0.1706658533739043,-3.1415928459063145,-3.141592653574312,-2.399484151130771,-0.27210645031092673,-0.2689315500736208,0.009996769230233389,0.000999990024540375,0.0010000263164597059,0.001,0.01252284183303194,0.32
10,228,0.2792312469679311,-0.07043129749539535,0.5610149807269207,-0.0477323653748198,0.10719194808158758,-2.706255619127218,-1.9384295093985424,-0.935793556388449,0.20052719065466496,1.5357144620984766,0.00937346260231976,0.0010000069735850428,0.001,0.001,0.00972035611298337,0.268
10,229,0.15243047565963005,0.293407152004332,0.14195356922555358,-0.06403873957806326,0.10271986210833611,-2.8344568760227093,-1.6331940652537595,-1.3881605395889625,-0.3506894125604225,2.7030107517801696,0.007124248526147453,0.0035868840802937775,0.0009158689296492598,0.0009999981096154844,0.008387931548675355,0.484
10,230,-0.019441041284916846,-0.13684120629356755,0.6525804313609651,-0.06979619912054279,0.26092768333035377,-2.950184830902137,-0.775781280589979,-0.5203997583014782,-0.20383873387674295,1.576948121534354,0.010016901905796306,0.0024993881329577754,0.022340256258414543,0.0012702294946431427,0.01544115725332018,1.236
10,231,-0.061136677798125476,-0.15386603067726837,0.7152945690206692,-0.14552511198473794,0.21487068119005207,-0.45749102391083196,-0.20768065204785785,0.0036347023261930744,0.25201366361717764,1.828468197456904,0.01123299725368179,0.005260099417681501,0.024127159118790396,0.005581576207691055,0.016247408565753498,1.784
10,232,0.04808797131534463,-0.11672650246682623,0.6348292313250028,-0.09004281508377962,-0.061392410169419716,-0.8987174173729143,-0.18869854992727733,0.041337760139251764,0.31025991947839077,2.9177964643965435,0.010240178306128332,0.003574909280595284,0.021310625145295803,0.0035067678940802764,0.01121327941972272,1.756
10,233,0.16115008501983719,-0.033049372253668566,0.7021533953203448,-0.02666088825955254,0.2747139458427529,-0.9836759653926869,-0.203987773175201,0.021348090800393002,0.26231340110084267,1.778332293961345,0.01258440656008805,0.0015665980692055178,0.023036252859435703,0.001403534671905778,0.01563733914984214,1.74
10,234,0.005508533526880885,-0.11305439768321682,0.6833546456196324,-0.0877275501265829,0.24238386834073805,-3.0607563749825974,-0.21646256647334694,0.0027309281764972392,0.24472913117641043,1.7678152825458617,0.009999029951432035,0.003934508358870738,0.021041756301898085,0.002568220420718382,0.014979761870154455,1.708
10,235,-0.12581009038189758,-0.1449416287870437,0.6374247250165924,-0.11294030896181667,0.17879715464935933,-0.3840359591245489,-0.23033417963664013,0.0035683960528711655,0.2570321538123392,1.8424608750487963,0.012748117541020827,0.0053148277689167465,0.022058431025596882,0.0023321377449477252,0.016385245969141086,1.712
10,236,0.04685972058152314,-0.18449575557815034,0.6074963234845213,-0.20805878437749206,-0.03413746907611712,-0.8139074261046404,-0.1936319762617579,0.020787594390275582,0.27213667904798144,2.8725212107221423,0.010827043473483787,0.005389375911863322,0.020327901744435273,0.005530315104734643,0.0100042676995261,1.734
10,237,0.08554286784912794,-0.060505465957132916,0.7386820282573577,-0.06401585373239181,0.23817769743964154,-0.4390086375339542,-0.21482081979057202,0.017627484194469384,0.31755978869952994,1.8608515737569622,0.011019499420894417,0.0008881162818804848,0.02547778080262547,0.002038928299233602,0.015785921461563504,1.722
10,238,0.13008645499498,-0.12852276274118293,0.6396888667042261,-0.12895456844235337,0.25635029681926436,-0.9172102649552105,-0.20794393228573743,0.035870478133797595,0.3070740670366798,1.854856163300885,0.011623079125058665,0.003760370594529466,0.020103320351954175,0.0034468893076206194,0.01850865073427107,1.73
10,239,0.05446191664082522,-0.2641595533474729,0.5864603613678127,-0.21077509432036381,-0.10560746356223594,-0.9655547860287875,-0.15131180824065266,0.07702611785145103,0.3383043962800308,1.2125575765372547,0.010630271887240956,0.007541292609837345,0.01961965346937911,0.0069806131378404085,0.01141872415596659,1.686
10,240,-0.023565932285995447,-0.039792773478577535,0.6988886277203168,-0.03211414927783015,0.2774100206553386,-3.0323661262836623,-0.2613855713339442,-0.01854295198477951,0.26142432162489637,1.939941140410604,0.010127313868257297,0.0013754702152378165,0.02212616382165334,0.0011317925061673081,0.018106201521984056,1.592
10,241,0.004826363624331509,-0.20123117682445324,0.5825399998559423,-0.14184010269880595,0.15786330432479084,-0.9815105382302445,-0.27730482715196775,-0.03437348965560552,0.214358532506859,1.8828036492299258,0.009999231361746503,0.007181948694718824,0.019376017364089573,0.004261458749627198,0.015485202668227586,1.628
10,242,0.11124670381307981,-0.06200829108408675,0.5921418865623407,-0.10554913273974281,-0.05596297941287327,0.28962674954138784,1.4726958996869475,1.8493966651587193,2.2882994028366928,2.28897284260275,0.013348770550114337,0.002088317901676754,0.003036688518299953,0.0019007124813474597,0.010223401324371923,1.69
