Numéro enregistrement,Numéro battement,Amplitude 1,Amplitude 2,Amplitude 3,Amplitude 4,Amplitude 5,Centre 1,Centre 2,Centre 3,Centre 4,Centre 5,Ecart-type 1,Ecart-type 2,Ecart-type 3,Ecart-type 4,Ecart-type 5,Période interpics
100,2813,0.09253742506327853,-0.09749362022165146,0.6458033678393641,-0.4810834622268613,-0.0016304016797428155,-0.4346059506321477,1.0691870186722625,1.471336146687831,1.8320455262348396,2.296882081020327,0.009355650089861956,0.001054948027405355,0.009616432539007813,0.0030641682471998356,0.01038087145404233,0.698
100,2814,-0.13112653503623078,0.02235422834430143,0.5189543307116982,0.015018876578748236,-0.03859667053698716,-3.1427890324398744,-2.741511395884823,-1.398230902886538,-0.07509783219186761,2.6033420127097084,0.008440784783519907,0.00024903299372933146,0.01169141824556274,0.0010000022297820535,0.009623599079560492,0.508
100,2815,0.08179564440520305,-0.1422103905686802,0.44731781043778823,-0.5163688099744588,-0.05990448341826567,-0.2533876008550922,1.1460054801441892,1.4839529916739072,1.851581410041296,0.5023845511708444,0.00970207961486262,0.0018225203321737815,0.00568546613543866,0.009932811683219859,0.01019923246464753,1.5
100,2816,-0.04630994914084356,0.12776451828347402,0.5607303774982355,-0.015618641675870279,-0.013466151928872225,-3.1416245340249658,-3.141592653589791,-1.4446749363424456,-0.1718058491222499,-0.17191760271708087,0.009971988205573446,0.001,0.01315268004301074,0.0009999872103463583,0.010017410613766082,0.528
100,2817,0.10527490425489032,-0.10014521154656576,0.5778186569176745,-0.2764392314978417,-0.40817261711586034,-0.12483618667265615,1.1917667931688247,1.579653935521482,1.9230341645698525,1.9245343131022112,0.0103124013939192,0.0017171569420973828,0.006440825520305101,-4.401515244906226e-05,0.020671630355062316,1.52
100,2818,0.032484400288580656,0.47709669283016154,-0.031240890059965654,0.007399898545218765,-0.014794740930548634,-3.1418985130134547,-1.2940753138269359,-0.2425940220070064,0.04851880525807217,0.8249490172752716,0.00970171407061608,0.011156344031318034,0.0010000679859597785,0.001000001643102876,0.010119886696259668,0.504
100,2819,0.11307094830516752,-0.09741628567777717,0.7403176143687696,-0.30510771109997237,-0.36205405199625795,-0.006713873712772819,1.1863194527130687,1.5414403543889785,1.8900311408194255,1.889764261612854,0.009840018387901285,0.0008760833833283403,0.01428718822036245,-0.0014316662125253847,0.018537079373659192,1.568
100,2820,-0.12177208655106528,0.030816663999757493,0.5413664591286602,0.025563620800706767,-0.05091972105295934,-3.1427275123572853,-2.891854300663869,-1.3982583891300733,0.03754891596195431,2.678420783351398,0.008548911623668482,0.0001927140205583156,0.012668021913570174,0.001000001775378733,0.009392151464933619,0.54
100,2821,0.10550897302942341,-0.15856234186315296,0.5636793888405953,-0.5156115079560899,-0.019574115963761032,-0.2767205690486113,1.108895728505799,1.4660346038572492,1.8141598810167683,2.536064988908469,0.009734332242723421,0.003297938197023806,0.0064275141845162595,0.0030615825907113333,0.01053981219698903,1.468
100,2822,-0.11508297271562543,0.025752611922047974,0.531155546742352,-0.021384403424899362,-0.033018423795493516,-3.142680994405,-2.906072961061671,-1.366960804665581,0.03279324275921203,2.2757976745976354,0.008488085537782337,0.00019635316017407883,0.0144597885037754,0.000999999699301645,0.009772686929269926,0.524
100,2823,0.1586537133367881,-0.08841947474493507,0.7141290882593627,-0.45130622115304997,0.05396744365589784,-0.4161533262373149,1.034028994944362,1.4262939355307727,1.781999725373298,2.7463580156104124,0.01186843914213277,0.000976982388414995,0.01417742854076968,0.0031912511003415185,0.00936232638836773,1.392
100,2824,-0.10410643421317631,0.18627547372064285,0.5255208344622784,0.009120189132475691,0.0419004435603859,-3.142596551047806,-2.746338061585649,-1.221315803601732,-0.08159980917999402,2.43432856634369,0.008539595674593127,0.0013387355176992513,0.012593951490804068,0.0010000001056243981,0.009668137371116143,0.516
100,2825,0.053098947732668066,-0.14235406152607127,0.5784304076602859,-0.36388742337296504,-0.512284064097628,-0.5964828290761665,0.9478919703935001,1.3512584785642376,1.733352413215249,1.7339444065950331,0.010288706576015811,0.0010162466442240467,0.014044690642243344,0.0006296902748557057,0.024697922938233245,1.332
100,2826,-0.09587836616460421,-0.08454494971401248,0.49223904018263487,-0.03299039084377692,0.019274248787014198,-3.142472896719502,-2.9401418590752875,-1.438165936630941,-0.06283185335548944,0.3517202771143745,0.008927594985163418,0.0010856074114381766,0.009774002621560439,0.0009999964512865936,0.00994370342368124,0.524
100,2827,0.1406991286304414,-0.1186876852700759,0.6574440065478653,-0.30234754331374936,-0.3623720913250026,-0.36317820391584194,1.0306514783981222,1.421382174511574,1.7590069366118317,1.7594802119796122,0.010540335717595618,0.001316815827765618,0.013294596880340147,0.001406100863351717,0.018918765201730962,1.476
100,2828,-0.012158958873733016,0.12631413848152967,0.4791177555676867,-0.027118300036621797,-0.03346962354444055,-3.1419340363206603,-3.1415926535897913,-1.4062004391502714,-0.1680687430369737,0.8659758648004643,0.009621198260997372,0.001,0.013249373081008016,0.0009999951148431377,0.009779661566390136,0.528
100,2829,0.12489371842345863,-0.11065018134329162,0.585269086391334,-0.46828470303711833,0.016326883787126302,-0.447963307886288,0.9858502178396729,1.3642771493043453,1.7418929377599195,2.5763831553757472,0.011450059807167788,0.001030814167046242,0.013774464241793221,0.00755058891401376,0.010097085858789432,1.416
100,2830,-0.039132467647411115,0.097548397119958,0.5526731133116948,0.00859654328732302,0.003654645474546358,-3.141559847722635,-3.1415926535897896,-1.5322668769067818,-0.40092707267700367,-0.40096734990312877,0.010028895451558396,0.001,0.009288877985030114,0.000999899644489293,0.010017861786029104,0.528
100,2831,0.09196075545418986,-0.1809155639172923,0.6913336865863198,-0.4119765131565341,-0.11181897192302792,-0.18233411303057528,1.0955409807754197,1.4595122816337975,1.7767111929649544,2.1312086428821018,0.010505293056698546,0.0034333253724349666,0.015096159161925561,0.002983321604673877,0.00865997608005961,1.572
100,2832,-0.03954589350696448,0.1029920428529956,0.5151612426829963,-0.019549916811903437,-0.0379657576965013,-3.141615397668726,-3.1415926535897896,-1.6503388649584791,-0.6329644870815166,-0.261528964178573,0.009982389646281077,0.001,0.009078785460691583,0.0009976550800644126,0.010051190140034595,0.568
100,2833,0.0772320439375393,-0.23824367074924815,0.5409278069365195,-0.4788065295694205,-0.06716036043953856,-0.13969453783820684,1.1655556181449347,1.5231575844203042,1.8362390593736901,0.6536400186839679,0.009864812888166997,0.0056049689146116756,0.008991802589780766,0.005187611927029719,0.009667855370317875,1.596
100,2834,0.03845478539424989,-0.10202498879807019,0.5649724577809614,-0.03616750498064516,-0.06946208150976489,-3.1416233151905644,-3.141592653589789,-1.4679028210892118,-0.04947389955285991,-0.04879443140836012,0.009971199376128627,0.001,0.012822913019863765,0.001000004749246968,0.01040817685770616,0.556
100,2835,0.12524254287806133,-0.0877215620961878,0.6814683848394653,-0.27925359375240955,-0.3664165885663786,-0.34098637487186373,1.152593905983794,1.5427330151467284,1.8856278929988444,1.8854581869151785,0.0102694797937133,0.0015123361092478074,0.012913468575733599,3.685672951382649e-05,0.020612377527064157,1.476
100,2836,-0.1007731058038775,0.22513825677539984,0.5172501256105303,-0.001926286518543711,0.04119056051450718,-3.1424889075042923,-2.55179175375201,-1.348154131549684,-0.23426790302587436,2.456741565003557,0.009011181745433678,0.0015464024612536478,0.012494240648298828,0.0010000049258228052,0.009576552184595117,0.508
100,2837,0.09529575690443413,-0.10177916830747184,0.5026028566774002,-0.4608464020276679,-0.030113922600192418,-0.21910800931202232,1.169956504983023,1.5176397630782423,1.8444971688399212,2.6308314778580715,0.009742965040539326,0.0008772187264885898,0.006305671054267161,0.0028422865305378206,0.009743730578780805,1.584
100,2838,-0.12251666665531738,-0.010950601375026422,0.5919420514263612,-0.06854872762344377,0.02188833174538027,-3.1426967655631834,-2.9245356567547356,-1.5313577213594671,-0.2779101006928105,2.634089745273634,0.00870148901942795,0.0006800318677671367,0.0102371377235263,0.0010002278319125027,0.009873569555789675,0.532
100,2839,0.07759837610678368,-0.10424445005627234,0.5325240901817229,-0.48815381467721725,-0.024213148318546845,-0.21635286395168538,1.1379097710835664,1.4842860060283627,1.8080678604862006,2.721898391966362,0.010047532301846835,0.0029274409475697387,0.00942533658369516,0.00294423615360341,0.009834166078152113,1.548
100,2840,-0.15878432237533202,0.24500642931563446,0.41412281170116544,0.017424522442410773,0.021382532243291452,-3.143031043595045,-2.852235435496027,-1.2212038204633986,0.0756182039110892,0.07535979766576217,0.007667301567211546,0.0011974260526951821,0.006505631809811788,0.001000000124739663,0.009968152912185847,0.548
100,2841,0.11958903949088621,0.10095653310296357,-0.0180719860508324,0.0519480519503569,-0.19624333741072456,9.71445146547012e-16,0.0,0.0,0.0,1.2490009027033011e-15,0.007906358045759688,0.001,0.001,0.001,0.013156344110551122,1.28
100,2842,0.2881580022814625,-0.019676059607733467,0.49255815974233946,-0.1684657567946125,-0.1595669201344964,-2.503387317324598,-1.6981581911296177,-0.4245395477824041,0.7217172312300879,-3.141597711093239,0.010331755554867329,0.001,0.001,0.001,0.009978588517676563,0.26
100,2843,-0.7351246764919234,0.4979490186085828,-0.012328400726501208,-0.037294226380884914,0.17863820955300383,-3.1415931906921486,-3.1415926524068856,-1.4408808411201308,0.30707296614035595,3.0943427691367025,0.009992212497956744,0.0010000001245040182,0.001,0.001,0.009996111996982094,0.332
100,2844,0.3631935219863307,0.41707699847606516,-0.142578191891713,-0.13971170499645488,-0.09156056264143221,-2.405866632479442,-2.235908289084239,-1.1224946296723604,-0.9389486003416769,0.7825498533855045,0.004306794230794903,0.0023687128717311125,0.001041345337220694,0.0009943374489230763,0.009006210651469155,0.2
100,2845,0.018746256022741273,-0.25567911827275436,0.5295488253070333,-0.35126176447613183,-0.2211130666740735,-2.9270054412838618,1.2311952235670671,1.5522806194268084,1.8644652013746394,-3.143462287767253,0.010393642902247853,0.005158547612268811,0.009381126252979521,-0.00013613646671534072,0.007428836335833232,1.58
100,2846,0.12841282848984278,0.26291608066199884,0.6347492023061063,0.017701010289318024,-0.004247410563614557,-3.1428045004878746,-2.6946715229614333,-1.4065765219629933,-0.150848916481856,0.8461134732195845,0.008266503192507864,0.0014043375436647845,0.010886000890342822,0.0010000016856223362,0.010041952530990645,0.528
100,2847,0.08825943155385683,-0.10664017083277519,0.601718694015865,-0.4869065935155655,-0.043996508984374766,-0.4290320194528565,1.034017019566594,1.4394163188335316,1.7951984116629462,0.5330762894536925,0.010194804431285604,0.0010452674813211651,0.011816221781918807,0.003184295113530591,0.00974893386744678,1.388
100,2848,0.025841052478781705,0.5873410205778398,0.5490268903109665,-0.0195695746286174,-0.11676200904278337,-3.141839631230499,-1.4037881787710098,-1.1640387635877565,0.04669033666940786,2.6477521047018566,0.009705135241208319,0.011385543812907725,0.01132441669123848,0.0010000004581024449,0.007916227569585805,0.52
100,2849,0.0991766395853214,-0.11385162287410323,0.5657909191498305,-0.3685210227283159,-0.1310318513473982,-0.5773770297689547,0.9069846977421567,1.3209721044306586,1.667598082636938,2.473528927154873,0.009272085314750043,0.001015353502326107,0.010525937761810765,0.0035583292731666133,0.010482536062316914,1.364
100,2850,0.045182786039865114,-0.09010406513363971,0.5083210148165551,-0.02786479422384961,0.08569133114748867,-3.1415133642722672,-3.1415926535897896,-1.3978421579461033,-0.16534698187648034,1.5933710674526902,0.010087217046650205,0.001,0.005941816394020946,0.0009999975890965787,0.008808292643486494,0.548
100,2851,0.07535675806104708,-0.11472106625419809,0.6179295149130294,-0.45752094887401906,-0.0234793159678061,-0.5008269408780054,0.9107956689713116,1.3036775659209565,1.660106059325276,2.1517652666213407,0.00948345884501575,0.0010147944123242427,0.012735606969746035,0.003873360870626787,0.010622212860703249,1.352
100,2852,-0.012321924279186993,0.12852065075638963,0.5644850234974768,-0.033848723320367737,0.022277411281193878,-3.1419607689745246,-3.1415926535897913,-1.4084027509833776,-0.2670989722934377,0.8647728605872944,0.009604053452967843,0.001,0.011272652516706944,0.0009999729721682218,0.009883495499808477,0.552
100,2853,-0.12995924363211372,-0.09164883623076003,0.6613768653082376,-0.5403157194682549,0.19598895214492051,-2.9092241880605623,1.324948350611336,1.7042628460193412,2.1011019351798526,-3.143257976435497,0.007509477993888878,0.0009177617080169113,0.0039636037760441166,0.010452936877357254,0.007166487924353276,1.424
