Numéro enregistrement,Numéro battement,Amplitude 1,Amplitude 2,Amplitude 3,Amplitude 4,Amplitude 5,Centre 1,Centre 2,Centre 3,Centre 4,Centre 5,Ecart-type 1,Ecart-type 2,Ecart-type 3,Ecart-type 4,Ecart-type 5,Période interpics
102,2884,0.06775033690031616,-0.07890329114435278,0.34365616080386857,-0.2527581313792289,-0.2357204304326251,-0.8986945339690463,0.7548449099625483,1.1720285722634944,1.5886503643424545,1.5877990432514772,0.013997403233764428,0.0010039337670343365,0.06331621179661479,0.05838219755389856,0.012081001675091612,1.194
102,2885,0.1698865392746667,0.03685073577789907,0.38228042525608025,-0.0023549130736091055,0.01095579865704884,-3.1416639666281605,-2.913950164316427,-1.4473805130440094,-0.4361567267415287,2.408338371601547,0.0030462493560323538,0.0022150752970591077,0.08943825119957827,0.0009998919072430326,0.00873741678488994,0.532
102,2886,0.012469157770464399,-0.09842140820827122,0.27344986012370437,-0.2861850403408643,-0.3252276612267239,-2.8872146247223154,1.0556772338487441,1.424815531245685,1.780500254078972,1.7805325797124032,0.01184610622208644,0.0008483358819093013,0.0518746166551153,0.00018960901099801444,0.0679671001699062,1.456
102,2887,-0.14187493726972003,-0.14357158179265053,0.38577228992238355,-0.005014381560177097,8.351121768011339e-07,-3.141701924769025,-3.1415926535893517,-1.450792234575606,0.15140205557661304,2.107014122232778,0.003026606962202843,0.001,0.09111733503132285,0.00100001539052219,0.010415991688151839,0.524
102,2888,0.08148109446108928,-0.07230188898162973,0.37082368594826354,-0.2597091162508648,0.009055177289874105,-0.3138289416285953,1.080708259026566,1.4454991659127296,1.80950273265526,2.7645996838430364,0.005794690586727021,0.0008427878269979818,0.06995740480172838,0.04563412490087617,0.00907416910038812,1.468
102,2889,-0.16589805861416881,-0.16737680845868783,0.3458715903970678,-0.03494419193335583,0.0067911115049731656,-3.141713657225333,-3.141592653589079,-1.4291047366175127,-0.14480286767511516,1.592826278219766,0.0029551128035332063,0.001,0.07915949628898344,0.0010001057893841972,0.00946575572023346,0.54
102,2890,-0.009771489636462016,-0.04106776180720637,-0.041067761806373705,-0.04106776180734515,-0.009771489635906905,1.3877787807814457e-16,0.0,0.0,0.0,2.7755575615628914e-16,0.008998910492771474,0.001,0.001,0.001,0.008998910492847801,1.456
102,2891,-0.15603127063036076,-0.15758484784723364,0.35551835951054256,-0.02541130929159678,-0.02419404341960789,-3.141708229566445,-3.1415926535891985,-1.17328586768003,0.4415893310370185,0.4416235032085985,0.0029875851506846853,0.001,0.07560520198824405,0.0009987311508492516,0.010846014166028218,0.492
102,2892,0.05699247698939551,-0.0740210419634196,0.31427508874673327,-0.16241296795906715,-0.20787107400645438,-2.87917390671745,1.636390030185398,2.037294122135149,2.382029138820679,-3.1416595312262334,0.0038766950798932347,0.0006000403523488419,0.05910944783866965,-0.020913273613810575,0.0032510606533778085,1.5
102,2893,0.0,0.0,0.0,0.0,0.0,0.0,0.0,0.0,0.0,0.0,0.009999999999999966,0.001,0.001,0.001,0.009999999999999966,0.408
102,2894,0.2370898258314041,0.19014172590130712,-0.12783276174169425,-0.12819853246679586,-0.13729214879688173,-3.1416195581364925,-2.230274444216863,-0.5190457427670243,-0.17301524758900355,-0.17191378044567007,0.004322542892707953,0.005479866988871278,0.0009999999312216836,0.00100000000006245,0.006416464916201832,0.136
102,2895,-0.17144102884610526,-0.17178100928712728,0.015362323606767156,-0.006229335186209749,0.011940430904354855,-3.141636674438004,-3.141592653580695,-2.787769246178363,-2.2035406376130497,0.13281666201508807,0.0042650613633799,0.001,0.00016925581130988656,0.000589370463702611,0.010273664944698514,1.156
102,2896,0.19958232395218883,-0.059845886993914424,0.2987612567843323,-0.24399358995996875,-0.24541396185409733,-3.141602932747328,-2.11002483712641,-1.1097168079844542,-0.20318758456053454,-0.20541243552966482,0.007838678752720667,0.0010332823535120763,0.001,0.001,0.011401924462303382,0.264
102,2897,-0.19694728386672045,-0.19831410892721524,0.3423588734754083,-0.023721083774886412,-0.014017780432336837,-3.141740042359125,-3.141592653588098,-1.4009689952360254,-0.06789296508912362,0.52460348333879,0.0028037664725932662,0.001,0.06514654734602376,0.0009999533385544592,0.009343061292830758,0.54
102,2898,0.0756622304346455,-0.09352481854689573,0.2996511344381115,-0.26005229275881364,-0.033516799185947854,-0.19925654927094838,1.1214540352112026,1.4962709926346167,1.8450771100969865,0.6980372383091235,0.00777830150766985,0.004238721122553201,0.05128212861841331,0.025217056447763106,0.007187479562205076,1.496
102,2899,0.20185410775462678,0.2024943864126363,0.3209738207408019,-0.016819476788920165,-0.02287491323381122,-3.1416806314775334,-3.1415926535855965,-1.0568134539901881,0.39088940850214005,1.0278219716957886,0.0033765721861350587,0.001,0.028961692320582755,0.001000011088449603,0.007347214322165859,0.52
102,2900,0.0,0.0,0.0,0.0,0.0,0.0,0.0,0.0,0.0,0.0,0.009999999999999966,0.001,0.001,0.001,0.009999999999999966,1.216
102,2901,0.11479857485916792,-0.0594442604031797,0.30525132820789413,-0.22607944741181538,0.1147985748593067,-3.1415942002424773,-1.3641125995850418,-0.16534698176788443,1.0334186360492739,-3.141594200242477,0.009705352093370935,0.001,0.001,0.001,0.009705352093357057,0.296
102,2902,0.1252505940779362,0.07945031636504324,-0.010101602114981895,0.014306379805590266,0.09174740377764834,-3.141592759399457,-3.141592650613798,-2.2302909678153973,-1.223062788802133,-1.22267657135253,0.009975996696266433,0.0009999999998404055,0.0010000005852263119,0.001,0.016283817895358342,0.416
102,2903,-0.20127369372064993,-0.2015781596170335,0.20426487940960183,-0.09247773677854995,-0.19148450541531384,-3.141642348169735,-3.1415926535758847,-2.0806317270457004,-0.04280098983092348,3.1246115846232683,0.004054130321115295,0.001,-0.01943656264159172,0.0009999999998473444,0.02644119565533813,0.084
102,2904,0.2075937579977744,0.20797204117464058,-0.08112883421285655,0.029787332954638507,0.13403571527048957,-3.1416540158316115,-3.1415926535806884,-2.8031190888820685,-2.0137528921971057,2.061627831772576,0.003786039869450583,0.001,0.00424860284913603,0.004849170136384362,0.005022504845343393,1.28
102,2905,0.11196250501305241,0.1242236024848187,0.1118012422386683,0.12422360248509626,0.11196250501319119,-2.7755575615628914e-16,0.0,0.0,0.0,-2.7755575615628914e-16,0.010729073543995172,0.001,0.001,0.001,0.010729073543981294,0.304
102,2906,-0.10322693474451686,-0.1328589038614169,0.007900400335970842,-0.026325709632582846,-0.023241189381785432,-3.1415928829830664,-3.141592653561457,-2.2107503858597664,-1.0471975511965979,3.0951065893256335,0.009952295280915248,0.0010000000002359224,0.0009999993597274428,0.001,0.00994920979500681,0.436
102,2907,-0.023187748867115054,-0.023391812865036776,-0.011695906432657166,-0.023391812865036776,-0.01147613972254935,0.0,0.0,0.0,0.0,1.3877787807814457e-16,0.009671350018000359,0.001,0.001,0.001,0.009793137780805495,0.104
102,2908,-0.17809911102824202,-0.1782355409357522,0.02603089030664958,0.025176673535033285,0.07841259018416366,-3.14161191611057,-3.141592653235489,-2.408554368817115,-1.439896632895163,-1.4395339943995453,0.006446584025949775,0.001,0.0005226707517198571,0.001000000418706736,0.00884565875675476,0.484
102,2909,-0.16471838922801613,-0.16476841915835355,0.02328309709755127,-0.0027273284852325696,0.06467334784700296,-3.1415986446264292,-3.141592647954319,-2.410990028940563,-1.3516154439863064,-1.351395505683605,0.008942164394229136,0.0009999999994587663,0.0008773392433440434,0.001,0.012276590757917217,0.476
102,2910,-0.11129962503831284,-0.12656804257943835,0.09202503794131418,0.028882129671080694,-0.03234038834603393,-3.1415927871773444,-3.1415926523568523,-0.5036140895067609,2.038437981336898,3.093698866307768,0.00997173233846206,0.0010000000047462035,0.001,0.0010000000001734724,0.009891521027278706,0.212
102,2911,0.1274885875579557,0.1273885350311366,0.12738853503280193,0.12738853503280193,0.12748858755823325,0.0,0.0,0.0,0.0,-5.551115123125783e-16,0.010494305363446489,0.001,0.001,0.001,0.010494305363446489,0.312
102,2912,0.0,0.0,0.0,0.0,0.0,0.0,0.0,0.0,0.0,0.0,0.009999999999999966,0.001,0.001,0.001,0.009999999999999966,0.428
102,2913,0.0,0.0,0.0,0.0,0.0,0.0,0.0,0.0,0.0,0.0,0.009999999999999966,0.001,0.001,0.001,0.009999999999999966,0.116
102,2914,-0.1552294010960565,-0.06348629003269823,-0.06473635254973985,-0.068097182277523,0.0007691654939222161,-3.141592654432988,-3.141592629170687,-0.8358365775605869,0.20175365665255496,3.0840534381889873,0.009999762153986248,0.0009999999887034807,0.001,0.001,0.009691728283235347,0.104
102,2915,0.09620922325141823,0.14420964225402105,-0.013624341107330335,0.028601383290176707,0.11252157823350335,-3.1415926977235866,-3.141592653589588,-2.2870794518125726,-1.231504320207199,-1.2309824067464292,0.009990190435242253,0.0010000000002359224,0.0010000016365450662,0.001,0.01719311665468151,0.332
102,2916,-0.18579484979448366,-0.18590290145210495,0.023968798151705675,-0.01229792135847827,0.05074058053740614,-3.14160793908521,-3.141592651999719,-2.551622202211419,-1.6666665251436132,1.2830119576406749,0.007273370368977558,0.0009999999999653056,8.954012612510854e-05,0.0010000005943440185,0.01008521861569185,0.268
102,2917,0.0,0.0,0.0,0.0,0.0,0.0,0.0,0.0,0.0,0.0,0.009999999999999966,0.001,0.001,0.001,0.009999999999999966,0.584
102,2918,0.24662037640686196,-0.046817568095608254,0.37240398354431675,-0.20211624436995343,0.05269539668162466,-3.141595502577557,-1.323815772267397,-0.09879222181099978,1.0867144399209971,3.1021115444662315,0.009395254972264745,0.001,0.001,0.001,0.011917469458906328,0.312
102,2919,-0.12667296156187371,-0.1266775885477515,0.02152611529096227,-0.016543756310734334,0.0832811719154424,-3.1415931524891705,-3.1415926335214546,-2.2439947525827635,-0.7629582158718069,3.0967937904585514,0.009900659682007497,0.0009999999930472283,0.0009999747601481248,0.001,0.010031097170206905,0.44
102,2920,-0.2266727379855697,-0.22686584333491946,0.2067735033857796,-0.13025404346130223,-0.1270394385802667,-3.1416336882555567,-3.1415926535456205,-2.1026146776066486,-0.6465306620433406,-0.6467588436459609,0.004285262002478868,0.001,0.005552022407004767,0.000999999316095678,0.01720416327780469,0.12
102,2921,0.0,0.0,0.0,0.0,0.0,0.0,0.0,0.0,0.0,0.0,0.009999999999999966,0.001,0.001,0.001,0.009999999999999966,1.144
102,2922,0.130780655632351,0.13071895424945915,0.13071895424945915,0.1307189542502918,0.130780655631102,2.7755575615628914e-16,0.0,0.0,0.0,1.3877787807814457e-16,0.010331213212557934,0.001,0.001,0.001,0.01033121321252324,0.312
102,2923,-0.12752655274937633,-0.0976778203509854,0.010684033149110527,-0.011765417569692524,0.04231438206091166,-3.141592840695145,-3.141592646698975,-2.2506932443607583,-0.6564521962724941,3.0947729051410207,0.009959391520649964,0.0009999999991395772,0.0010000035336386595,0.001,0.009920079616542966,0.416
102,2924,-0.2312171626221353,-0.23148698660570827,0.2643862077750099,-0.0931086197216906,-0.06677335127609724,-3.1416481117642023,-3.1415926535669954,-2.121250355397872,-0.5848709727457019,0.36784262102163723,0.0038990046540257634,0.001,0.00392211984272846,0.0009999943682479908,0.013029179452961016,0.12
102,2925,-0.20584946749860333,-0.20620689259173708,-0.015135364925237952,-0.042962609793777,0.01008057568256891,-3.141650701137327,-3.1415926535801826,-2.8471947041929777,-2.5197039658097924,0.8835541218912529,0.003853131990205482,0.001,0.002121788652663768,0.004475223999405141,0.009415085175744032,1.268
102,2926,0.0,0.0,0.0,0.0,0.0,0.0,0.0,0.0,0.0,0.0,0.009999999999999966,0.001,0.001,0.001,0.009999999999999966,0.268
102,2927,-0.12023401548641544,-0.12023809234193528,0.012939516138802133,-0.04565405110969623,-0.024219492953332693,-3.141593080567236,-3.1415926364541913,-2.2827399856541533,1.1526706858494924,3.096440148666679,0.009914159569229487,0.0009999999948790963,0.0010000521209672644,0.001,0.010007831311300798,0.448
102,2928,0.16199784178599852,0.1232162395050386,-0.13103976709900333,-0.11295255075715172,0.16199784178530463,-3.141638527500841,-2.2544156349219384,-0.530850836202371,0.1305370908693816,-3.1416385275008403,0.004212237628327124,-0.01789377155271655,0.0009999993383764663,0.0010000000003816392,0.0042122376283340625,0.108
102,2929,-0.19243554731928572,-0.19283876741631958,0.06803084434591822,-0.009636586222431692,-0.013669859271971545,-3.1416506862809515,-3.1415926535829257,-2.8321687417298635,-2.409096957157412,0.9766289458470918,0.003856309951793811,0.001,0.003894112825814469,0.00026943289903225056,0.008926819774550078,1.244
102,2930,0.10879964426734128,-0.04374030699405132,0.3063348427678683,-0.2390935375148073,-0.2538562441891389,-2.5248043227165264,-1.820362098460126,-0.9395417281763869,-0.08808203701653605,-0.08583069684981523,0.00868332543161844,0.0009998731004396957,0.001,0.001,0.010455041935638855,0.3
102,2931,-0.20848593260481024,0.07156144431194383,0.30723461837790306,-0.025814568984822404,-0.016051268901300774,-3.141700536832393,-2.8656672624415798,-1.426652478166535,-0.35972434560684025,2.4581073304150736,0.002797842017076818,0.002972017611963354,0.032785101724565696,0.0010020961566579714,0.007740582907253225,0.556
102,2932,0.0077276269429880345,-0.11609984103429477,0.27749845040174675,-0.29029793414084604,-0.06190931910902008,-2.876277024108027,1.1148119507323866,1.4779363204923954,1.8269594386485557,0.5846639335885975,0.011119468876854789,0.00407481889191831,0.041153576569224054,0.04780650718573439,0.005147723404129144,1.54
102,2933,0.17849537781449756,0.18008249326300677,0.354955657581247,-0.025076673853365986,-0.017834291724484152,-3.141732769432817,-3.1415926535888357,-1.457778912002355,-0.128103777889637,0.4940839924043673,0.0028140439124785086,0.001,0.06441784675004131,0.001000151974245688,0.009207440629075926,0.544
102,2934,0.03237965584974346,-0.08858866558255721,0.26734261861233577,-0.30800105520064824,-0.04092443288892052,-2.8975877748310706,1.104132981474597,1.4582771119505475,1.8116041524865891,0.6038033832126515,0.012639291997966163,0.0007951506118115691,-0.03729217190672723,0.05321530366720387,0.0070175339970498735,1.516
102,2935,0.21767610007899388,0.021807643040270296,0.3580040465149652,-0.022992423829449295,-0.002228870340564505,-3.141682449469372,-2.9257849793960564,-1.4627384415332487,-0.2637978577414132,2.506081157723594,0.002806765636059455,0.0018279961825757856,0.07324584432487252,0.0009992054657699248,0.010543784546468106,0.544
102,2936,0.005929972427681786,0.03838771593045466,0.03838771593059344,0.03838771593045466,0.005929972427126675,-1.3877787807814457e-16,0.0,0.0,0.0,2.7755575615628914e-16,0.009541605297068113,0.001,0.001,0.001,0.009541605297165258,1.552
102,2937,-0.20538784023704262,0.07277279260147515,0.34184184138122814,-0.00788440557946139,0.04293023616686899,-3.141662296906167,-2.855851847615206,-1.237598289701761,0.33999920495491076,2.27111181934131,0.0032032504628073787,0.0033664301402534422,0.06622044068807414,0.0009999799219774222,0.004383438509180922,0.532
102,2938,-0.1759169690717399,-0.176440950868858,-0.0185229240317523,0.009166247024573434,0.10605084673445658,-3.1416555686918572,-3.1415926535864886,-2.826730843481034,-2.2912368073011553,1.9448302345327433,0.003753972766449837,0.001,0.0031037150294902973,0.000422064526660714,0.017405753714342918,1.316
102,2939,0.23047707216823174,-0.07416194052189114,0.3470792956429685,-0.23821975911970641,-0.24368426366218035,-3.1416034271655926,-2.027333199776221,-1.0368803339434294,-0.1392824329177743,-0.1387715078192728,0.007658651746904023,0.000994086219506917,0.001,0.001,0.026006261373373297,0.28
102,2940,-0.19605594661745976,-0.19792051191198348,0.33260817395784986,-0.03236826644944662,-0.011350954210078696,-3.141773734599298,-3.141592653588774,-1.5360997199347055,-0.31184927854800804,1.2589359788940473,0.0025544088932860456,0.001,0.047149340687362554,0.000996196877634358,0.009127462435688473,0.532
102,2941,0.009470423570425043,-0.10330712384483902,0.39207593820196945,-0.27896518846883894,-0.20990762197100826,-2.922142115224801,1.2242972598143491,1.582965713362636,1.9279921433719571,-3.141699959639912,0.00898615356599265,0.0006795443249972289,0.06452258421155757,0.007793030471366462,0.002708727112183932,1.644
102,2942,-0.2235925555711167,-0.0053639185847090326,0.36194786078746627,-0.029319644107688465,-0.03271409300116946,-3.1416483859238036,-2.8066250883650286,-1.1590671249472928,0.3071779483315787,2.4294582234689166,0.003275347539185831,0.0023136752532033535,0.0651087794303053,0.0010000229707156074,0.005139550340514364,0.532
