Numéro enregistrement,Numéro battement,Amplitude 1,Amplitude 2,Amplitude 3,Amplitude 4,Amplitude 5,Centre 1,Centre 2,Centre 3,Centre 4,Centre 5,Ecart-type 1,Ecart-type 2,Ecart-type 3,Ecart-type 4,Ecart-type 5,Période interpics
103,2943,0.1725086070498127,-0.027527522495593915,0.5035201466230569,-0.27047068597327667,-0.33222854948031594,-0.7908949354156032,0.8205100835510645,1.2792835979697235,1.707548007009981,1.7072670325226214,0.03541920549087307,0.000998665845060697,0.09513811965917204,-0.0002721589410374934,0.076572352216493,1.236
103,2944,0.09878447112820618,0.09897597801272326,-0.103947558746386,0.31945869762658297,0.17776423229293867,-3.1416074072238067,-3.141592653572355,-2.6580009678005485,0.24166097335306025,3.113270456679737,0.007348364233970545,0.001,0.007761365501276054,0.001,0.03623396049240838,0.492
103,2945,-0.15452960254114306,-0.154731661037883,0.01319574285557922,0.008201488056349451,-0.03929531020073003,-3.1416174498005303,-3.141592653557964,-2.6443628957950973,-1.695103953529258,-1.6950202716370524,0.005587214635876806,0.001,-0.0003150839144535076,0.0009981565960704977,0.008082699566699615,0.396
103,2946,0.04303341186145956,0.05405405405306548,0.04633204633286433,0.046332046331198994,0.043033411860904446,2.7755575615628914e-16,0.0,0.0,0.0,-2.7755575615628914e-16,0.0070304341338628135,0.001,0.001,0.001,0.00703043413382118,0.716
103,2947,0.13426565063673346,0.12080536912761897,0.13422818791825053,0.12080536912789652,0.13426565063867635,-2.7755575615628914e-16,0.0,0.0,0.0,-2.7755575615628914e-16,0.010218076554786527,0.001,0.001,0.001,0.010218076554869794,0.32
103,2948,-0.1308327476899258,-0.14763958693191537,0.002216601459407823,-0.05120395192166948,-0.01286063470153443,-3.141592669852795,-3.1415926780429007,-2.191194876033208,0.13199969132730194,3.088876788106328,0.009996343735264547,0.001000000973901515,0.0009999999997501998,0.001,0.00979670871512457,0.356
103,2949,0.23199655788825177,0.260366868661819,-0.07869074246611611,-0.026622634385255518,-0.012954814637533833,-3.141616276805142,-2.1130413187210713,-0.11855066617319965,1.2447819946404564,1.5412255373567485,0.004725195899075723,0.005957608766932587,0.001,0.0010001573987606918,0.014574915375865595,0.12
103,2950,0.04815561698401364,0.05865102639349146,0.058651026391548566,0.05865102639252001,0.04815561698415242,1.3877787807814457e-16,0.0,0.0,0.0,-1.3877787807814457e-16,0.005760773588635003,0.001,0.001,0.001,0.005760773588607247,1.072
103,2951,0.09828293517495582,-0.05593245436999303,0.34152048507494775,-0.3096929295183365,0.0598817847693022,-2.604689271733924,-1.878640832995303,-0.8682793766202943,0.04736069327019768,-2.604791074217748,0.0092272610140134,0.00100007024499038,0.001,0.001,0.008154788732100638,0.292
103,2952,0.131259284945351,0.02733234877712464,0.36998593976355765,-0.016160249983676028,-0.043077324173475214,-3.1416441056508138,-2.8773731569793766,-1.3502006258183759,0.05872135801099379,2.348779177064693,0.0036766147984115746,-0.0028565528555772966,0.06830530798956114,0.0010000000677929935,0.004730192806775819,0.504
103,2953,0.10897762243780891,-0.08120982777737991,0.45919598248617477,-0.31786153216259905,-0.36195983206749793,-0.7726201718358254,0.8019522165365143,1.2732903334490537,1.6995501240765867,1.699191794681756,0.014867697981164564,0.001003817061423883,0.08277489629915273,-0.0004765743759637129,0.07217268280817041,1.208
103,2954,-0.18442425411032337,-0.18488603750323662,0.3675030068914996,0.020576254666781025,0.0227783948564254,-3.1416534543336825,-3.141592653583858,-1.23877683408118,0.1518836142956869,0.15177656911694612,0.003797973240075577,0.001,0.054250385472866675,0.0010000000094924069,0.009372093775352986,0.5
103,2955,0.10743709388658175,-0.07188168657370167,0.3425486531938799,-0.3046926596605933,-0.36407406614341015,-1.047293462673788,0.7062495113286045,1.1932404448573921,1.6639848778667787,1.6641494435944697,0.016693029702027597,0.000999933353422854,0.03233204640786563,-0.0005743181194238856,0.08788113390218985,1.072
103,2956,-0.1394163680714643,-0.14008124643730013,0.38897621467536464,0.021392626035830826,0.04138887518422646,-3.141650126984342,-3.141592653588454,-1.1849305487283344,0.3897165570273865,0.7076258087362569,0.0038850366823853224,0.001,0.0518207060971669,0.0010000004765632333,0.006240048378413886,0.476
103,2957,0.10908774769154982,-0.06557328285690199,0.3965806021145724,-0.2802186912784281,-0.2920111338564128,-0.9734363654959196,0.6884598509376338,1.179113040987351,1.6378997494246819,1.637032499945221,0.016235077314960232,0.0010001072803998414,0.0560205201247517,0.04164247113133579,0.004193622869155509,1.104
103,2958,-0.21184993503305932,0.0883880761916423,0.3347904815936797,-0.0033635720607662375,0.011784860410022331,-3.141630043934175,-2.725875965303634,-1.1469304453355802,0.36568803375118997,1.7952259630518386,0.003956501084350918,0.004594651136723542,0.0010801125328298014,0.0010000000082642227,0.013395755143839573,0.484
103,2959,0.12133261742547544,-0.0855613215386025,0.3166593037542317,-0.2831664712034916,-0.3429150526575693,-1.1960240493216199,0.6150207840418368,1.0970640436119277,1.5952105747924652,1.5958798102606895,0.005621219808325529,0.000999990151509921,0.0010292137334670373,0.0076494733785074445,0.08717403661956089,1.028
103,2960,-0.14582268808360288,-0.1464801263682487,0.38403442059122095,-0.021852435793866188,-0.00341813802541235,-3.141652399143525,-3.141592653588234,-1.2835167705931898,0.1968416449617764,0.622019796797916,0.0038259161036957564,0.001,0.07518620704124224,0.0009999999590397093,0.010005153587674632,0.48
103,2961,-0.07258781928620198,-0.06890764309745609,0.4419529967467971,-0.3700737363621529,-0.03937517746929425,-2.8083103680450936,0.7457315897165537,1.2379685909103688,1.697629726259739,0.22192688890866186,0.004384314912818095,0.0009997833663098468,0.0783721743037373,0.08458219378962895,0.00833907861267187,1.116
103,2962,0.18326114157877846,-0.06906655251354156,0.37879275252256006,-0.0033091844126216853,0.06556877244186979,-3.1416331630624517,-2.873740765081825,-1.2046056190658545,0.48029361370647816,1.8500644178249548,0.0038054529793757315,0.003556335715414574,0.06787499162091191,0.0010000003923250613,0.0051206809709961,0.472
103,2963,0.09070099938983464,-0.07590942213960691,0.4654229089469786,-0.41688682142732114,0.004143007498818602,-0.9315244257067082,0.7893448872645688,1.279076742144802,1.7361727722874392,-2.0523032725579227,0.01568645783576013,0.001000480239889522,0.08788944794219697,0.09828069555702688,0.010882647368739102,1.124
103,2964,-0.066112826525377,-0.0676166855793299,0.4653092977669664,0.0009707160637061489,0.04209917794347516,-3.1416476758035836,-3.14159265358969,-1.251794226880159,0.4685504935673407,1.1596644127224833,0.004076532198065975,0.001,0.09927195274069586,0.000999999764882519,0.005500201501692765,0.468
103,2965,0.09208133914987753,-0.0706392472197928,0.4858045224832853,-0.4055122701888062,0.008708169876126874,-0.8966095245867917,0.7609133301141923,1.2435309970224317,1.679517643255783,-1.499248298513853,0.015100092965171187,0.0009988925711638666,0.09150787447991915,0.09613294097131951,0.012037034506970036,1.168
103,2966,-0.07968212675141276,-0.08145495755711188,0.43833655433826024,-0.007117683966880274,-0.006445991127198116,-3.141660808301168,-3.141592653589652,-1.4473045814238101,-0.10589638158185047,-0.10591639159869805,0.0036591126017612636,0.001,0.11717458788685048,0.0009999996936721203,0.010090835276467215,0.5
103,2967,0.10436265426251048,-0.06892012432925143,0.5185849145042962,-0.3991333630090191,-0.04178229483278265,-0.6536508388491226,0.8785213813595993,1.3287762615093512,1.7357027381027628,-1.7780026723856812,0.015855611496151348,0.001022275617361095,0.09556372577867567,0.08841772315039312,0.004763777140277521,1.28
103,2968,-0.07678564478429123,-0.07820819624883285,0.44683396211782084,-0.015773326685635112,-0.012533850526229469,-3.141650956496577,-3.1415926535896523,-1.4346443111599503,0.42290670337040026,0.42295237916159306,0.003934513895045565,0.001,0.11099823195607249,0.0009999962335475723,0.010822256069017667,0.508
103,2969,0.12071809675119051,-0.07434877627156727,0.45605960467243495,-0.4104590241525864,0.008102064880417105,-0.9022741372860419,0.8104845927237914,1.2895257265072704,1.736479483533726,-1.952881691504776,0.005296088843976116,0.0009989076825447632,0.08782357114817368,0.09392755023642203,0.009988225209097241,1.156
103,2970,0.14926575716532797,-0.0491355386618399,0.46922694260783365,-0.024618306062438793,0.008791308564049529,-3.1416468340408823,-2.900360884849416,-1.3685728669299215,0.29075688215360707,2.602627160419687,0.0034842622908576215,0.0027363405765899406,0.12112270386205229,0.0010000095046401305,0.009551339115132186,0.472
103,2971,0.09406183047932509,-0.056121256161061346,0.49135945293346706,-0.36898392865077617,0.09406183047911693,-0.6677677795186137,0.9066341588475678,1.371058932407253,1.7919542851590111,-0.6677677795186143,0.013818040038707608,0.0009833518721757686,0.0937410759284063,0.08536156873321837,0.013818040038690261,1.3
103,2972,0.1263609568320327,-0.0616138468899921,0.4180320049542407,-0.0332371335361458,-0.05438767620700778,-3.141638297371265,-2.8777134399744684,-1.2796099017331681,0.4111220015823195,2.4123278274145865,0.003915547616477055,0.0033268980092055955,0.08895585391393332,0.000999997396353535,0.004750784364234973,0.488
103,2973,0.0,0.0,0.0,0.0,0.0,0.0,0.0,0.0,0.0,0.0,0.009999999999999966,0.001,0.001,0.001,0.009999999999999966,1.132
103,2974,-0.09225851787359074,-0.09365061095502505,0.4569072661714339,-0.014247240088561786,0.008185786499139902,-3.1416579992930225,-3.1415926535896084,-1.377364504438936,0.21138326439507116,1.5671704966922182,0.0037117795271238096,0.001,0.1185470251457145,0.0009999992352922584,0.011837370945761245,0.492
103,2975,0.14006909940205586,-0.06744858504501298,0.4539574956711339,-0.4091740225554751,0.0022062592830776346,-0.6841942740038266,0.8608110903769545,1.3322333143973097,1.7583392075774462,-1.8319935783762187,0.03660561058932465,0.0010060012292635303,0.09456647238426694,0.10069186866519782,0.011337508480435366,1.232
103,2976,-0.08449819049087036,0.009581877152791367,0.46415489357798684,-0.00394350882069562,-0.009875406288981425,-3.1416417739359934,-2.7452617895479468,-1.2809799011943768,0.45751349324196344,0.5947402885884461,0.004093272227949086,0.0001898310892496353,0.11358281317480179,0.0009999989380682075,0.009377702326351612,0.476
103,2977,0.09162536245856297,-0.060429422431951506,0.4262046914783969,-0.43325877945359287,-0.008418130821867863,-0.8814994352785378,0.7759809175571228,1.243478685412585,1.6947266947320332,-1.74032606282861,0.01914497924656143,0.0010011535179235411,0.08534440262404186,0.11214469004092772,0.012213975525858884,1.172
103,2978,0.037375752609165334,0.006049584361001734,0.45675893451804433,0.003644424223144366,0.056323875155850495,-3.141635996396876,-3.141592653589778,-1.2346186187414832,0.3751155407270772,1.343894495566572,0.00544809982479285,0.001,0.09676679829127052,0.001000000130277733,0.005306175941640197,0.496
103,2979,0.09756825627460806,-0.061375927519829336,0.43630345486685024,-0.3794999008043423,-0.022795165813590545,-0.9472387676443144,0.6946235014093366,1.1999000509504896,1.6575505438358118,0.1579637135225383,0.01940350274094766,0.0009998829426847702,0.07723891638922772,0.09004750198814737,0.010516041809856642,1.112
103,2980,0.11569712343594916,0.04668499882256487,0.40869719949298167,0.00759538985019297,0.06116715416353371,-3.141636234626034,-2.888253927164401,-1.1948579728912478,0.30861993322420916,1.87524187248731,0.00406396223597394,0.0029269297186659492,0.07212397251324984,0.0009999999374770965,0.005141575669835301,0.48
103,2981,0.10789395996372246,-0.06016035177746356,0.3723108678230749,-0.4302435368700028,-0.032322670629845625,-0.9727730575837001,0.720113177671657,1.1948919303837802,1.6697294170429913,0.260978006788259,0.009203272210954834,0.0009998527169843554,0.06121587253223635,0.10973766074671543,0.008501650405210266,1.108
103,2982,0.1080951565722745,-0.05715475852665869,0.4676291892348599,-0.010241884458672188,0.01671481461638632,-3.141637877990855,-2.87442152095152,-1.2409306238871591,0.455530934771053,1.7907357150121863,0.004059431905404921,0.0032681805831072035,0.0991178365955446,0.0009999990577814746,0.013459370090087809,0.48
103,2983,-0.09793845525578837,0.4193929438325674,-0.39887589784814814,0.2954885366344571,0.41610118814812563,-0.8295980869924556,-0.5307863625170727,-0.2705152787279589,1.7625374828201485,1.761847902863676,0.022592196024136653,0.06773964099564173,0.0779030991767117,-0.0003737844720210258,0.12626962302111608,1.12
103,2984,0.09859390901230505,-0.07087372101630267,0.42263747458954537,-0.3902228382712546,0.4016682895386696,-1.1854256100136198,-0.32472307249869775,-0.07378363322907358,0.15246375660644898,1.827107055056831,0.031057366126675513,0.0007234897827214105,0.05808955612932647,0.07393213155979908,0.13798707713662647,1.576
103,2985,-0.13371065193655163,0.39273573486763685,-0.3534721031927746,0.180585416423288,0.26754692279407033,-0.3025358145297205,-0.05971173542430823,0.15141115657998838,1.7865090549480067,1.7865214203355557,0.038041231384428484,0.05710678283723805,0.06986825499674397,-0.03077266735440374,0.08011257250821169,1.636
103,2986,0.06769920592717435,-0.17467639454859926,0.4013322468547282,-0.4384025167400686,0.17469784313514639,-1.9002450900764316,-1.4071501608520487,-1.2627887415964878,-1.1336557026701097,2.196487481224992,0.023675516214742266,0.05133516581330269,0.03484893380567822,0.053937169579586025,0.022750340277176827,1.684
