Numéro enregistrement,Numéro battement,Amplitude 1,Amplitude 2,Amplitude 3,Amplitude 4,Amplitude 5,Centre 1,Centre 2,Centre 3,Centre 4,Centre 5,Ecart-type 1,Ecart-type 2,Ecart-type 3,Ecart-type 4,Ecart-type 5,Période interpics
111,3212,0.03679264211801521,-0.09806652559527022,0.8682184264425792,-0.09760809000492385,0.27094615449269754,-3.141645297945386,-1.7405401773433034,-1.3151870859220898,-0.9056842612473245,1.86803759786947,0.00498039436646515,0.035028547724059,0.08930830592377813,0.0010409807209625357,0.09468399639838604,0.734
111,3213,0.09428337688616299,-0.07805576411498513,0.8835013691825606,-0.0707890769411667,0.27586127398543503,-1.1574352831823829,-0.3500668538015451,-0.06678630280275016,0.22356795106559504,2.0911991976656914,0.038489084116930056,0.007420617727480323,0.0650715701044452,0.003324601769168945,0.10410011638471761,1.264
111,3214,0.1261896717210765,-0.0565911707872946,0.8699339060322696,-0.06286793910938629,-0.06137863552243869,-1.0503698847562766,-0.21783017186986103,0.054159041930688774,0.3241351405129113,0.3243059672692988,0.04965301018274767,0.0009435257875737144,0.06632443188434978,0.0022724615653641304,0.01064200570650156,1.32
111,3215,0.10383549904077391,-0.0664118170506485,0.7737479243856176,-0.10472883164166957,-0.12055809848455293,-1.1296584463201502,-0.25765758221963014,0.03995694087750289,0.29728151380117335,0.29694816682410946,0.038864695264122305,0.0051153378045021,0.06479678717574439,-0.0005746519041546373,0.03682533601696544,1.276
111,3216,0.10727134252270264,-0.05897885213942309,0.8027970076148125,-0.13148463281395475,0.27541688437178563,-1.160937514569383,-0.341282600735601,-0.05759184834356221,0.19515058400891885,2.136804603428288,0.04173509169269489,0.0034232717189265315,0.06220473019758864,0.019796244420431548,0.1029395531308452,1.26
111,3217,0.11984137441461945,-0.05123931946730997,0.8979136904052569,-0.05064223915917751,0.006307569681685541,-1.1628229361646865,-0.3282264148959951,-0.05447082547334099,0.21578187274762947,0.7502338187665071,0.048717692913350624,0.0008937059607247159,0.06282091903816392,0.004281987133162484,0.010361460107216986,1.316
111,3218,0.12413783690548488,-0.06891418020250115,0.9148034713752753,-0.05132670547501821,-0.04460201532920987,-1.0807434891733312,-0.2868535899642272,-0.022411514676324566,0.23231660367362678,0.5973611485949443,0.04449323259390601,0.0032372860955365646,0.058815623571318865,0.0031628831060969234,0.016702346738839788,1.364
111,3219,0.1445435272419689,-0.04897364561330809,0.883795477221921,-0.054442763367773664,-0.01685245874706915,-1.0020814534578681,-0.2617997494286528,0.0013310284612576624,0.2526094221201538,0.6951202696582177,0.04924640042833263,0.0008869674672757198,0.06087007359152015,0.009504922045961605,0.009872009266857799,1.392
111,3220,0.07071951091634451,-0.07004122971309204,0.782166493944652,-0.13399161507568194,0.320475100046383,-0.9638846375527318,-0.18534498542448907,0.08388701457606698,0.32404450164602727,2.131404230932415,0.018978525123406302,0.0009144911059095754,0.05841884150158903,0.02015058595329012,0.09807859120194694,1.394
111,3221,0.09907574507650575,-0.03069745764375192,0.8086974200936929,-0.08140754440401497,0.31824469465246996,-1.1436898641273716,-0.3407109764213383,-0.07015214033159933,0.1824213738799648,1.9838966801138613,0.013968423806035397,0.002753078505934562,0.06358662332508244,0.003608146272835284,0.08286318752009961,1.316
111,3222,0.08781569522101851,-0.06092850554314709,0.8251552453246207,-0.06124212425243915,-0.02981595209028669,-1.0351478106485361,-0.29349194096772235,-0.0404391968222723,0.2305344986874878,0.5469492633623726,0.010907559797938516,0.003172379459337149,0.06295993124348198,0.0008866460797983248,0.009812258944662628,1.376
111,3223,0.08763087414627765,-0.045397297766086454,0.9172491974992283,-0.04191718198574792,0.02060231288605237,-0.9687379814395684,-0.24429976261619651,0.01886794181480711,0.28066136586892887,0.9325160286175139,0.010869552918780735,0.0030098494081938175,0.06579519790103529,0.0008914878193839729,0.00977885090207682,1.404
111,3224,0.07544093737010278,-0.059152879310113544,0.8434383861713299,-0.08954458785808507,0.0149094384013261,-0.9357451504811215,-0.15278279755130375,0.12456506088980124,0.38142858428450055,0.8403073549820868,0.00730504376735035,0.0009510877098721219,0.06293726323450861,0.0033772270452762593,0.010199737493652257,1.372
111,3225,0.096059617710578,-0.04635647020984031,0.705723521415938,-0.10842339769173899,-0.014007857933252656,-1.0949060678262643,-0.22513048766010854,0.06163896378430077,0.3272185481117292,0.798183123900285,0.016114760429901082,0.0009749323447428841,0.0681601563500546,0.0064344217017623965,0.009634772282271177,1.26
111,3226,0.07874192298128682,-0.05979617497338092,0.6637001599122084,-0.0991430489813258,-0.01945005215254335,-1.2147644165234812,-0.3036873783099974,-0.01044231401319206,0.2617988678736287,0.7644421552897069,0.011674077092023822,0.0009659360379322683,0.07096794975908106,0.0011413382989257084,0.009390047116135765,1.196
111,3227,0.09212505482496584,-0.04675221544271965,0.7552565720677117,-0.04938212243712506,-0.009962829591909826,-1.2138542499370961,-0.32822583225550567,-0.015637706494988468,0.2865464166404306,1.10972073613806,0.017378433119840903,0.0010741546975560614,0.07750451508371337,0.0010531690200408774,0.010336943894375906,1.204
111,3228,0.12678392282220938,-0.04129860873964357,0.8060442122678463,-0.03437772377481764,0.001997674420320281,-1.235195276005364,-0.35362148241268426,-0.05635800234400845,0.23062268069106823,0.8353673252877915,0.029574326371087766,0.0009563302661431675,0.0722514809020626,0.0009803104031269319,0.010056530380043683,1.208
111,3229,0.10128819582774644,-0.05798329721923109,0.834377886050242,-0.06705725663939514,0.2901353826608273,-1.2294017195463864,-0.39003536096449154,-0.10745045042564369,0.1658597145122967,2.0684099009078545,0.02624698389806819,0.0034051291683500863,0.06426379886584245,0.0011376054759374967,0.08610852944487522,1.244
111,3230,0.133665206541126,-0.04386717854632452,0.9425674294307398,-0.041200248623800846,0.3341427886008375,-1.109290624122478,-0.316956242385298,-0.04666014530888857,0.2050836162292548,2.060181020408413,0.034813298606207736,0.0009005162634492517,0.06679972257364511,0.0014657143137867803,0.11604279910818308,1.332
111,3231,0.13225187475951908,-0.06328636196044646,0.8951963962455303,-0.061374439920187,-0.046619151538527456,-1.013617289863122,-0.24280765627724463,0.01487015153427619,0.2705186106891661,0.8760340604937239,0.04234058909658802,0.003216386083277521,0.05610802741531479,0.011846597599284409,0.019692943425433627,1.366
111,3232,0.1261142372389091,-0.05981338600525424,0.9059296467092399,-0.07747376437010256,0.27551927335165055,-0.9747151255197,-0.16085147858702475,0.11513257167727177,0.37894519678683536,2.176350486796382,0.05057662830199953,0.0027930291309180974,0.061443189463821726,0.0027447253563666835,0.10395034419128552,1.372
111,3233,0.11717416286476197,-0.05716871530674847,0.7738670527944624,-0.1325956041728909,0.010432134877079556,-1.0437216657011605,-0.18657913243129343,0.10652698200512963,0.35778654004756627,1.2254102722784723,0.04642540380293697,0.0010722332238033835,0.06553030896355108,0.01913580867434001,0.011082585651962127,1.284
111,3234,0.11620219292164119,-0.06815505327428187,0.7615265352232714,-0.09183040903441532,-0.060943677588465583,-1.1617134388658605,-0.286546258499742,0.005592832408654661,0.28654552607404954,0.557412489323558,0.03966645264618903,0.001091184841255823,0.07080154154157851,0.0012281603598483506,0.02917245568797825,1.208
111,3235,0.1364544838710204,-0.05990154899229999,0.8711291758308888,-0.06132365492630237,-0.0559612140812179,-1.1963244489531726,-0.2912731987349124,0.010698716507692899,0.3016759789435802,0.3013016771294452,0.05620013124262245,0.001085850278185029,0.07313362321678922,0.001039901157697364,0.0036915536217045574,1.204
111,3236,0.13330982858663593,-0.06799553898847716,0.859789281671621,-0.08268326200341651,-0.0775995852482163,-1.143587476339795,-0.28465785983623837,0.015614982197504323,0.2950080504685311,0.7089984535736727,0.047579788316373425,0.001122457915438176,0.06977873879626227,0.001278597559364227,0.031176672749093755,1.212
111,3237,0.10009238086471943,-0.0688692192222234,0.8456336414103675,-0.087788986980938,0.00496152469843963,-1.1716434354427285,-0.26957527040343693,0.03134001794897261,0.31104209094090374,1.2649296761630155,0.04189199722764863,0.001098372862990942,0.07102385034739213,0.0016574459238267716,0.010454618589296498,1.216
111,3238,0.13358197804973038,-0.054803417093437605,0.7671676794884645,-0.09855299191206991,-0.013194384574854728,-1.1661729994931875,-0.27318182992580975,0.03177077593843336,0.30470152610213586,0.9351149085802104,0.0552633096942636,0.0010471866404248844,0.07114560618947946,0.0012729995371934108,0.011499785616755935,1.208
111,3239,0.09842488076629613,-0.06327510431924586,0.5625472736404385,-0.13372607829178412,-0.04958365625473465,-1.212397077264076,-0.2532672655247314,0.0484967954019135,0.3287065410426946,0.8244547370561701,0.043397486129658394,0.001024525021850158,0.0014200014283826936,0.0013352473928255884,0.024746468792597984,1.184
111,3240,0.12600834231694757,-0.06442812552705092,0.556076905204234,-0.10944848708444523,-0.047498839280291305,-1.294887050911942,-0.2895728212922557,0.016390891547092334,0.3004999925204155,0.7594103439665119,0.046463640961978456,0.001025844731074004,0.001083423189939369,0.0010604470615471475,0.01804766493522899,1.148
111,3241,0.12959318942738815,-0.07571639538168325,0.6123241029147246,-0.08886050884838662,-0.07137840218192007,-1.2759156135106255,-0.34310877390625266,-0.05360070486202764,0.2466095617624641,0.2464137700715302,0.04792031978780077,0.001093263082791284,0.025827950500350135,0.0010349025222057264,0.02565260399772824,1.152
111,3242,0.10640207982476263,-0.07448398987200372,0.814487681667325,-0.07476980691190394,-0.07065633258364665,-1.2536350012468946,-0.35589662543672906,-0.05662813954670327,0.23213710182801267,0.500343020427784,0.030114767164215718,0.002735998843049174,0.07272895614743563,0.0010898885833336416,0.024251745411928198,1.192
