Numéro enregistrement,Numéro battement,Amplitude 1,Amplitude 2,Amplitude 3,Amplitude 4,Amplitude 5,Centre 1,Centre 2,Centre 3,Centre 4,Centre 5,Ecart-type 1,Ecart-type 2,Ecart-type 3,Ecart-type 4,Ecart-type 5,Période interpics
144,4220,0.2143282562825133,-0.1718832522986908,0.223846855119868,-0.18994562121888944,-0.17524959742212298,-0.9594549690334141,-0.20699095149484548,-0.17191841479569542,-0.13835337543112639,0.557567135407145,0.008440215167313372,0.024746818387390672,0.011470329000093036,0.017872489595007993,0.020030668920718572,10.304
144,4221,-0.19692401766816767,0.06924407418881454,0.13688077031877327,-0.010587361284949658,-0.003755397143414816,-3.141629260410515,-2.7611447983537727,-1.2235677321988683,0.06613879270715373,2.3479401395764063,0.003972993339794176,0.004328940320956874,0.0009672192005986672,0.000999999999798772,0.012676507068248534,0.436
144,4222,0.08133972303401588,-0.03330620516435312,0.2748087339822481,-0.11190785964779085,-0.22338437846915182,-2.739204762791677,1.3983918438384686,1.9913337246919502,2.547486372446548,-3.141618541823349,0.005392872731779514,0.0010041931798241968,0.007075218061854504,0.005555205481184005,0.00458378918699987,1.084
144,4223,-0.1511118457723268,-0.09606598258582869,0.017112428040460564,-0.005795894160210312,-0.05882196404118398,-3.1415926546236137,-3.141592484439266,-2.0463585174759116,-0.9511243813620474,-0.9509280402531461,0.009999725353159973,0.0009999995090663174,0.001,0.001,0.017752327190684,0.328
144,4224,0.0,0.0,0.0,0.0,0.0,0.0,0.0,0.0,0.0,0.0,0.009999999999999966,0.001,0.001,0.001,0.009999999999999966,0.104
144,4225,0.1646253286802844,0.1074824765865455,-0.038917725579433675,-0.019914535540701356,-0.006476463043267712,-3.1415926539123245,-3.1415919776019345,-1.8849555921538759,1.6455961518803672,3.0818682311206644,0.009999911814027552,0.0009999925229532405,0.001,0.001,0.009631993072513013,0.108
144,4226,-0.14405473838272942,-0.14405704989732027,0.024090909277835238,0.002280633413506441,-0.025351999854986415,-3.1415929404925205,-3.1415925693223863,-2.2107503858603614,-0.6283185307179586,-0.6282516625239329,0.009942087280158064,0.0009999998837318938,0.0009999980476311779,0.001,0.012561253739194434,0.316
144,4227,0.16560327789846113,0.16561764292290887,-0.01621960795975769,0.049177433493628006,0.0710248379873015,-3.1415944435770213,-3.141592603754022,-2.35099316601743,0.5201312340380451,3.100035533281967,0.009668810501382531,0.0009999999595046152,0.0010058601516972345,0.001,0.010679272949860553,0.32
144,4228,0.15080869961963808,-0.028165498866612973,0.24418805263109777,-0.06837037729522737,-0.2643673594404657,-2.250278997387694,-1.1722360647723107,0.14066832777267624,1.5004621629085584,-3.1415929125422783,0.014576059914329599,0.001,0.001,0.001,0.009938926162235085,0.284
144,4229,-0.14331943869729274,-0.125775615097318,0.0174400595221585,-0.018403530211616354,0.037029138790766344,-3.1415926584176557,-3.141592023881344,-2.094395102393187,-0.2755783029464731,3.086604512339939,0.00999884601191432,0.0009999936345779217,0.001,0.001,0.009646881256212781,0.348
144,4230,0.07633333327511374,0.07633587786215482,0.0763358778635426,0.07633587786270993,0.07633333327400352,0.0,0.0,0.0,0.0,0.0,0.009984028495991738,0.001,0.001,0.001,0.009984028495894593,0.108
144,4231,0.2088210317645545,0.20886414634812447,-0.020204891065978177,0.009464851004840326,-0.0414578829491771,-3.141599157029145,-3.141592578381585,-2.3699419759464893,-1.0471975511965979,-1.0470822346132698,0.00888191101726772,0.0009999999109601134,0.002986016975985549,0.001,0.011888313885894909,0.32
144,4232,-0.06202060767568342,-0.04968944099376084,-0.062111801243380685,-0.049689440994593506,-0.04959653539332577,5.551115123125783e-16,0.0,0.0,0.0,0.0,0.009692023707517606,0.001,0.001,0.001,0.0097333220744938,0.364
144,4233,0.07482626847090343,-0.03198599210476991,0.2736497055876431,-0.097093429324032,0.31122799992361816,-2.203715894798722,-1.2191255073632032,0.14066832777267624,1.4535727203176654,-3.141592954573234,0.012929517911948154,0.001,0.001,0.001,0.00992903908536953,0.28
144,4234,0.17426212525473728,0.17426241222934802,-0.025141321413097367,-0.02218880056507155,0.061261053751197836,-3.141592666511976,-3.1415861305260524,-2.0138414446088326,0.6712804815362805,3.0880306816938052,0.009997162967960117,0.0009993892380451,0.001,0.001,0.009625084622145686,0.336
144,4235,-0.221716237065464,-0.22172251675056925,0.1194649973771938,-0.008929647383503929,-0.09396042580365932,-3.141593709144141,-3.141591006350028,-0.8567979964335799,1.340119943139702,3.09773404743081,0.009806314090314251,0.000999961356522693,0.001,0.001,0.010155900012996334,0.132
144,4236,0.19714473816142078,0.19715639054325798,-0.03239171843003775,0.002865311914844376,0.005249310206686482,-3.1415943620796605,-3.1415923233505896,-2.2982120776975257,-0.8222960636912879,-0.1897533644707658,0.009688438028500014,0.0009999983412851679,0.000998415129459639,0.001,0.010111598153107427,0.42
144,4237,0.07873891371357192,0.06299212598537277,0.07874015748116084,0.06299212598509521,0.07873891371384947,1.1102230246251565e-15,0.0,0.0,0.0,0.0,0.009991419754929965,0.001,0.001,0.001,0.009991419754943843,0.176
144,4238,0.074282029081304,-0.02876447262850107,0.24079411460789804,-0.06344239747399497,0.3147494527333748,-2.078177361443317,-1.4499658401183662,0.09666438934122423,1.4016336454477534,-3.141592812931814,0.013726359349864848,0.001,0.001,0.001,0.009960700328108208,0.272
144,4239,0.17726128232231464,0.1772614713960713,-0.03793919788368284,-0.03139250401114146,-0.05477586921592037,-3.1415926700195653,-3.1415882444031245,-1.9701513251325822,1.1714413284572105,3.0884741822124493,0.00999642499122484,0.0009997216265923417,0.001,0.001,0.009666073578000157,0.348
144,4240,-0.048779924076980286,-0.032520325204121625,-0.04878048780382327,-0.03252032520328896,-0.03251976092688563,0.0,0.0,0.0,0.0,0.0,0.009997181148014801,0.001,0.001,0.001,0.009998098418677005,0.124
144,4241,-0.20897488381007817,-0.20898540072297428,0.028989250691163173,-0.00857482839409598,-0.07676099813761854,-3.14159428772262,-3.141592064456198,-2.334967505902508,-1.1887107337907326,-1.188394893972785,0.00970338477521533,0.0009999948559481489,0.0010040274673873686,0.001,0.014395294987066777,0.168
144,4242,-0.20722748659108053,-0.20724235203828706,0.023002279562895824,-0.001783336937881769,-0.08321467416947839,-3.1415949134021894,-3.141592330991903,-2.356194464807271,-1.4881228359109546,-1.4878333439190987,0.009595015356498827,0.0009999984346132909,0.0010117400841270765,0.001,0.013836247643357292,0.424
144,4243,0.0,0.0,0.0,0.0,0.0,0.0,0.0,0.0,0.0,0.0,0.009999999999999966,0.001,0.001,0.001,0.009999999999999966,0.284
144,4244,-0.14381015124428506,-0.14381019108852408,0.028284449281910935,-0.013824011435533228,0.05699723879979654,-3.1415926568402592,-3.141590725108369,-2.0195952773077153,-0.28049934407051724,3.085655319830885,0.009999242317763569,0.0009999434854153213,0.001,0.001,0.009518582037269475,0.332
144,4245,0.0,0.0,0.0,0.0,0.0,0.0,0.0,0.0,0.0,0.0,0.009999999999999966,0.001,0.001,0.001,0.009999999999999966,0.116
144,4246,-0.1450091766711895,-0.1450092542915996,0.026010722652001748,-0.010887796946334627,-0.038093596653584486,-3.141592664800446,-3.1415916619840574,-2.121246321654638,-0.187958534830159,3.0880058972436757,0.009997476331711731,0.0009999848248888324,0.0010000000000555112,0.001,0.009699261787375303,0.268
144,4247,0.16749506949792076,0.12749541094447397,-0.032305607209258146,0.02152009583164576,-0.004826332914716245,-3.141592653652689,-3.1415851576757836,-1.8849555921538759,1.3194689145077128,3.0789248021177924,0.009999982788725893,0.0009991512201341637,0.001,0.001,0.009403519060303634,0.212
144,4248,0.1350019827529991,0.13500212960025568,-0.01288890952150717,0.04750254259908662,-0.033364308495323104,-3.1415926741867515,-3.1415922979909268,-2.1467549799530166,-0.3665191429188095,3.0893326749731655,0.009995415768505557,0.0009999979778120274,0.0010000000001804113,0.001,0.009758456930953853,0.176
144,4249,0.26086012530743696,-0.028662616209356943,0.25659810615104084,-0.06166440396890811,-0.039521339376965156,-3.1415927525971687,-1.227184630308513,0.2454369260617021,1.619883712007237,3.092586834353049,0.009975653713610267,0.001,0.001,0.001,0.009845724114544386,0.292
144,4250,0.15459485735059958,0.11789762060205994,-0.024219349526118778,-0.007260511314486871,0.03823547054044453,-3.1415926547729693,-3.141591964305474,-1.98871461557519,-0.2593975585532857,3.084104361942336,0.009999697222655103,0.0009999923437493665,0.001,0.001,0.009519077767268192,0.332
144,4251,-0.1517064839269943,-0.1517100042471408,0.14238782489547197,-0.0023033989968562654,0.046670455253096835,-3.141593096254985,-3.1415925541504,-0.22765164156447837,2.1854557590189305,3.0961267355857682,0.009912533674692426,0.000999999839572773,0.001,0.0010000001514344206,0.009985422503262465,0.104
144,4252,-0.15861855656396734,-0.15864485106526588,0.02830897253340791,-0.008659696620247553,0.06097751222659252,-3.1415957355598336,-3.141592636005161,-2.3512549299715553,-1.363332660991797,-1.363154576294679,0.009440833094624358,0.0009999999947958296,0.0009769771262259077,0.001,0.013021323572702205,0.34
144,4253,0.1307364344728933,0.13074105197718888,-0.018604824063794243,0.045204415553610995,-0.04736548878854112,-3.1415931631746408,-3.1415926298304564,-2.288874647499035,0.0448798950512829,3.0967738965927714,0.009898820896369854,0.0009999999903479986,0.0010001172515973203,0.001,0.010028793599407516,0.296
144,4254,0.24203621245759563,-0.0246714659973209,0.244466548463344,-0.07583509443229335,-0.15198515523437617,-3.1415930655438116,-1.5025008343255533,-0.13659098493868715,1.138258207822389,1.1373727320821991,0.00990520171762317,0.001,0.001,0.001,0.01567650649280214,0.272
144,4255,0.13607662754554295,0.10274344055118204,-0.04317382050013938,-0.03541508889886334,-0.005819403363162204,-3.1415926701697785,-3.141592601810528,-1.9896753472735358,-0.6283185307179586,3.089307649735139,0.009996060219990789,0.0009999999533220607,0.001,0.001,0.009824267673524635,0.368
144,4256,-0.06575600509511886,-0.06360424028281625,-0.06360424028239992,-0.06360424028295503,-0.058688429713238344,-1.3877787807814457e-16,0.0,0.0,0.0,2.7755575615628914e-16,0.006423358287887791,0.001,0.001,0.001,0.006436781292095938,0.112
144,4257,-0.0011395900896753524,-0.038012104214946524,0.22341065090780998,-0.09949027538390187,-0.11231437296511737,-2.772001239291056,0.6098385739321213,1.1457573182123904,1.6812657182328141,1.6811160982223405,0.013005804022064539,0.001000000054678484,0.001002025939416228,0.006088134280836774,0.0060585285710204615,0.932
144,4258,-0.20863407061342606,0.07719239256988553,0.16116543362687638,-0.00799661140599398,-0.04305643710142573,-3.1416281300383835,-2.7857895414286307,-1.177038785958301,0.14395438035317054,2.430227154142277,0.0040467904822952296,0.00444911238527729,0.000984028057953278,0.0009999999998404055,0.005558222485543529,0.428
144,4259,-0.01709310239484798,-0.04703907081957664,0.2580763334359325,-0.05694847174248919,0.18309748748959098,-2.9449362291630394,-0.8502467583910486,-0.5553797817218337,-0.2900689923457478,1.696187586347274,0.010610648093986276,0.0034034923743615423,0.04294946325949972,0.0009346617982620701,0.027120966541973855,1.056
144,4260,0.0078489559549706,-0.056946798392592486,0.2268685965193775,-0.0748491482957582,0.1964659639831092,-3.0663899569149837,-1.8478287239131417,-1.7352115828199375,-1.6262583155925618,0.9269679848907316,0.009999999999993027,0.0011615876072322276,0.01976608925256012,8.083953782320098e-05,0.02253908993447891,1.5
