Numéro enregistrement,Numéro battement,Amplitude 1,Amplitude 2,Amplitude 3,Amplitude 4,Amplitude 5,Centre 1,Centre 2,Centre 3,Centre 4,Centre 5,Ecart-type 1,Ecart-type 2,Ecart-type 3,Ecart-type 4,Ecart-type 5,Période interpics
149,4409,-0.4510778942517474,-0.10833719976396641,0.46507351347471504,-0.1863075950026061,-0.1837196322226964,-3.141613190852973,0.04661116696720771,0.7923898384374789,1.4449462658766512,1.4450390032584854,0.004155606163656628,0.001,0.00100001164848773,0.0009542855366185813,0.020871341745544156,0.95
149,4410,0.45717788181489066,-0.04798984869064424,0.5754779456330539,-0.08104275577998132,-0.05957299322152629,-3.1418375961912615,-2.897052219465922,-1.401881047723179,-0.12221298652517348,1.4590952581294585,0.002589289521296983,0.002751719215167808,0.07038110616910859,0.0009999977875614343,0.004832190855623135,0.496
149,4411,-0.00523364209321745,-0.1553296317404376,0.5530536910183071,-0.2749095020562905,-0.27464035776776774,-2.8223552575198916,0.6892639812231058,1.3271368008649762,1.8051001027580922,1.8050880972212768,0.010371377228663948,0.0009971444915591867,0.06062567805749284,0.005695565323023512,0.0030182426962771436,1.252
149,4412,0.5178089708974234,-0.0583787040372704,0.6367004433673701,-0.04277878714124812,-0.036461494503373916,-3.1416233153068664,-2.8558517355911537,-1.1759878361203064,0.6887983892831898,2.301541950035708,0.0036778981514950975,0.0035555414479017033,0.03388280503127572,0.0010000099338592907,0.005972963315882235,0.476
149,4413,0.06910409450690912,-0.0676082780073424,0.5484743704671224,-0.23354842102401197,0.5888216967468556,-2.704697735235075,0.4367989785740891,1.0919973646954713,1.6619882547203892,-3.1416142287000683,0.004796457186141407,0.0009999996693755833,0.0010415673384879245,0.005362771321209114,0.003635069029884741,1.02
149,4414,0.6014556968363708,0.009546292679361554,0.5877462724524571,-0.09627939643243145,-0.05389920255424294,-3.1422014449165823,-2.891351890655611,-1.6523515013465653,-0.4380706982535215,1.8774626058178028,0.06616618129139494,-0.004823992359266212,0.01633625424079975,0.0009946268694761553,0.013291684244649505,0.484
149,4415,-0.11404418526769318,-0.11947785084985595,0.5880139727414687,-0.09639479150534101,-0.10780872597347067,-2.902228717935439,1.0262119726488503,1.6303517640939984,2.0841066738795,2.0839176907099484,0.0032120562669279815,0.0008425349817254849,-0.017211525024486307,-0.013397336046773083,0.014479733107493021,1.52
149,4416,-0.6376825568890099,0.14047213022476493,0.5939681504922645,-0.03336435453229463,0.004855548353830224,-3.142422236430298,-2.7084413989874987,-1.56779207366163,-0.43942945163050184,2.590669421064585,-0.03146729199547273,0.00354934365745418,0.01832645489704865,0.0010006447685163558,0.011268871925197389,0.472
149,4417,-0.03952789780659059,-0.12969686065968383,0.5373957014526192,-0.18025016582625739,-0.08410310930008608,-2.8824955247188946,0.97747493185727,1.5223847202965906,1.987792897809858,2.364303115737656,0.013506323286134282,0.004433654417794871,0.01666536217212365,0.003968462219171701,0.014563366577420257,1.448
149,4418,-0.7536205053019442,-0.7710217116156051,0.6462945082314043,-0.023745887523257674,-0.007483907933038576,-3.142079447709011,-3.141592572545714,-1.6198287751395106,-0.5565813861868824,1.026574422580838,0.07705957730449019,0.0009999999042432641,-0.023525618810999904,0.0009951948076726272,0.009481461966571693,0.5
149,4419,0.060591292236676295,-0.09137164037953006,0.6523949516909554,-0.20647989025595095,-0.051312182058509105,-2.8843384570867547,1.0471979469787878,1.5611627696988961,1.9893906189848751,2.6271122728109435,0.003357064231758173,0.0008226624765285135,0.031497403338547524,0.0037370598565390468,0.0036190916630107614,1.532
149,4420,0.0,0.0,0.0,0.0,0.0,0.0,0.0,0.0,0.0,0.0,0.009999999999999966,0.001,0.001,0.001,0.009999999999999966,0.52
149,4421,-0.05923340988941332,-0.09140345793731486,0.5739644957245325,-0.17186289299915536,-0.17506211392621907,-2.8684151880498323,0.4780684484503759,1.39332525903998,1.8715265647184747,1.8713205943017697,0.014753185570027761,0.0009991107772490118,-0.021244863516235335,5.207539896423409e-05,0.016201662545474137,1.332
149,4422,0.6669582800905054,0.6835998164078132,0.03300325043004981,0.6147628529643206,-0.08567189957824098,-3.1424596512118574,-3.1415926180257228,-2.9107147143143015,-1.5903153857098569,2.295036828950249,-0.05686374828460117,0.000999999980904164,0.002152909904073017,0.019374908644203104,0.0038992475840282552,0.504
149,4423,-0.012496480320951344,-0.08988463275953393,0.5198278317315446,-0.1599477215165906,-0.09189618556501519,-2.882494383497391,1.0428795155764439,1.5744336054807944,2.0534553629999968,2.4161224215215737,0.011979225515313897,0.0008747080563465951,-0.020997463978684638,-0.015180988168301742,0.014716218497513546,1.46
149,4424,-0.6456780702936054,0.06134941920408736,0.5796190409915292,-0.03394482579436812,-0.00063754830094968,-3.1402766826091932,-2.7129143217618994,-1.6025516875874812,-0.40373881690452074,2.5990696566152685,-0.05707523376947574,-0.012184775218583202,5.9689318200315845e-06,0.0009987980583981973,0.010404234566736515,0.484
149,4425,-0.05675573217032958,-0.13304293448550802,0.5209503775970528,-0.20057750784687797,-0.20232744594130878,-2.792469748030399,1.0222646266577158,1.5453904838957313,1.9698057350346758,1.969745429967485,0.0035201466801926123,0.0008298909027472107,0.035362105273605456,-0.015009916902926,0.015196270391111223,1.508
149,4426,-0.49851627910294893,-0.5062040383446524,0.6520183805310724,0.011252335335475823,-0.06734361883301751,-3.142711996817005,-3.1415926509238945,-1.4933816823492794,-0.18241505730035495,0.7360303506150726,0.03219581611408177,0.0009999999999028555,-0.08365405638841124,0.0010000059995758362,0.004723552763378757,0.504
149,4427,-0.05488433718063659,-0.09469062713990647,0.5333120040210308,-0.1426814321502963,-0.15013016815329808,-2.7092082673124427,0.9255876330464838,1.438707440773987,1.9258173637078255,1.9255148046879529,0.01447111197864055,0.0009490479194730331,0.05322365639194492,-0.015000169957355891,0.0158349966415849,1.356
149,4428,-0.433238473262289,-0.4437130143329043,0.599920877822468,-0.08491228874861453,-0.0615435235840142,-3.1422833029962978,-3.1415926533553153,-1.6539417920854338,-0.5830987174588728,0.40464970945532824,-0.026625668839232466,0.001,0.07150429580281188,0.0009656469311243302,0.011276612932379871,0.508
149,4429,0.008636361778319723,-0.11848895822529497,0.5369719384380122,-0.13006274580817584,-0.12634589684345698,-2.9137662239913196,1.0904207444351097,1.6186446909776382,2.0258824747966395,2.025948725340614,0.009099851220443723,0.004054875736124854,0.07527209761982916,0.0037075288541178436,0.0037283457634162812,1.604
149,4430,-0.2721596063910517,0.13294636501094015,0.7355791842802932,-0.02649405157441217,0.023705254429955788,-3.141698452295022,-2.8826897939195386,-1.6510341308930645,-0.7145583771776234,2.3530916321257465,0.002801705003660209,0.00311195674910957,0.16002501508345532,0.0009816739690711165,0.006141199022574286,0.488
149,4431,0.11781942240629918,-0.05291384375413655,0.6707275427458137,-0.1882916839959881,-0.07818474230529984,0.04932798122816817,1.1211178287639578,1.6262123729955533,2.0451304899911675,2.562397915071709,0.012922136381221206,0.0008243395845018436,0.11205957277775944,0.03669466394949542,0.003562996992657591,1.552
149,4432,-0.15287694752833156,0.09760811335630014,0.828720765822203,-0.021362825568574134,-0.016523034620011007,-3.1417038611460324,-2.935546859480296,-1.8625436787838003,-0.8304584495279661,-0.8305273895882129,0.002541769344218937,-0.012329189647699757,0.24769333057741852,0.0034318985999902086,0.009508962543068279,0.492
149,4433,0.5259592701767458,0.05369633665253146,0.693908420783706,0.05195339223201647,-0.05088631476262257,-1.46524244183994,-0.5004660686240419,0.4187177366205985,0.9751213720296236,1.4057424915823276,0.06953625558562107,0.003330359810103623,0.17217705092354102,0.0025374546277029033,0.010055499990679574,1.94
149,4434,0.13733732768622842,-0.09430395970180867,0.4818095507831175,-0.11911950213569689,-0.16986935434974906,0.1722300593263516,1.0769231974754825,1.548668777050363,2.071175321945876,2.070908881852867,0.03084802599564699,0.014728236588794723,0.1169736972642968,0.0007792186742471979,0.06162453315039902,1.45
149,4435,-0.030323161204342912,-0.020821855419115454,0.7039046861686883,-0.0423193597969946,-0.03207719763410459,-3.141543290509615,-2.907935388370473,-1.5799071485950096,-0.32584033158637515,1.948906372329395,0.014720864951311653,0.0017549598821654513,0.22292214836305715,0.0010014229354916573,0.012446574764586283,0.524
149,4436,-0.05871798050403304,-0.0810190209141636,0.6762687514177403,-0.13822759052300718,-0.14286223483938856,-2.915852271714253,1.1099043984012245,1.5869601845654042,2.0129987218952508,2.012889962997714,0.013750844607144886,0.0008215939591358918,0.11597498875275711,-0.014552112033495627,0.015147455919673992,1.52
149,4437,-0.19966835643304842,0.08143481708653885,0.826114035145418,0.0007195508232197152,0.06421875815969862,-3.1416677836415903,-2.7728660218357675,-1.547485076381742,-0.5334779978316679,1.231289739110519,0.003111848640432719,-0.013536493183961454,0.2187928385055162,0.0009999691922339396,0.004482684607652324,0.484
149,4438,-0.05268086275548327,-0.07621637672451657,0.7314308182816258,-0.31072502506264577,-0.13113796364177113,-2.8047666941617146,0.9913153510029074,1.535710199142576,1.9360198536621254,2.377041235472086,0.01393824500546227,0.00788550642185399,0.11994360010188124,0.05744846174631547,0.0224047940028779,1.424
149,4439,-0.039468505019567425,-0.041717781952886765,0.8364649074979376,-0.0258637507667432,-0.05196194493210961,-3.1416466004095502,-3.1415926535897474,-1.2835372466111692,-0.07551905417284574,1.64611671613152,0.004292537121139139,0.001,0.22475322854494684,0.0009999999553412789,0.005031388157776252,0.516
149,4440,0.10794152127704801,-0.102446850963079,0.622817403397173,-0.16556787478259236,-0.24205344662466718,-0.6526720896983492,0.42494973090636134,1.2903516428014146,1.7905855207454218,1.7907412942917784,0.018540084037771118,0.0010000212658259058,0.1316582250934877,-0.0009606614772502161,0.06790076585915356,1.148
149,4441,0.0017890886312312195,-0.028223763121377587,0.7508468360701428,-0.01798923374015199,-0.053969526808434753,-3.1416206944634273,-3.141592653589786,-1.5613850605784394,-0.6905283031680965,-0.6905309211770877,0.008474442009219164,0.001,0.2609928541069764,0.0009933236390983749,0.02262942194529824,0.508
149,4442,0.12159391509243275,-0.0743251608969185,0.6555604866478437,-0.08931280154802886,-0.015867618122711067,0.018972451388562628,0.963345736578155,1.6180687285344109,2.0714175302269684,2.6757089669278717,0.019950190059952033,0.0034166136979031335,0.1311046156933632,0.000392346513870516,0.012003428525125493,1.514
149,4443,0.05603811167215435,0.08699853618835653,0.7690771545520605,-0.05445165578386962,-0.007783720246584988,-3.1416670642859383,-2.90953680279386,-1.6137965884607295,-0.34227468170994946,0.7823527364732225,0.0037144394553528686,0.016517905924522493,0.2373941530757194,0.0010024551593535982,0.010495770002571748,0.468
149,4444,0.10951451734502,-0.040162614197320895,0.7299188990788311,-0.13307914828433842,-0.029482876499121125,0.09701475381946977,1.115932998635473,1.6376052017960858,2.0493924395071867,2.571501842608915,0.017738952424850955,0.0008290158594350954,0.11827489870351494,0.005327876946399345,0.012422128236412961,1.588
149,4445,0.06129035638990378,0.06421494438890187,0.7909715095255794,-0.016596968938176644,0.025529352356671475,-3.141669299795624,-3.14159265358973,-1.5380023245864416,-0.4823192049889849,1.329572246377189,0.0035170474146955953,0.001,0.23251743879309242,0.0009994414132814535,0.006525062430821595,0.492
149,4446,0.0489850952289824,-0.08815447452229912,0.6570851079271508,-0.16782050976219398,-0.23328656531869796,0.09134427597339362,0.8733443343771835,1.5379115034744204,1.9681944878194804,1.96817666180197,0.010338341948392211,0.00299526538927422,0.12263728967273804,0.009266807357337056,0.06199063515214105,1.436
149,4447,0.15562956970494712,0.06645689851741818,0.7572076969951005,-0.03943396617304373,-0.04559699407772577,-3.1416594897002534,-2.728595038498402,-1.5029486686944815,-0.6257381527452202,-0.6255566581580667,0.0031396777074904464,0.003531062525568109,0.21874928680482594,0.001006659276872989,0.006000189151620901,0.496
149,4448,0.03826392777407397,-0.03647352310310041,0.6622790113910467,-0.063290751149832,-0.06277599976290009,-2.9492357550913564,0.9488861551308484,1.512784714314434,1.987619523966165,1.987555240759466,0.004185915638260355,0.0014132438644402492,0.1039599618612154,0.00028534037893501653,0.013835655659048497,1.452
149,4449,0.0941120077932456,0.08187134502984919,0.09356725146209002,0.08187134503012675,0.0941120077932456,-8.326672684688674e-16,0.0,0.0,0.0,2.7755575615628914e-16,0.011742321677086732,0.001,0.001,0.001,0.011742321677364288,0.504
