Numéro enregistrement,Numéro battement,Amplitude 1,Amplitude 2,Amplitude 3,Amplitude 4,Amplitude 5,Centre 1,Centre 2,Centre 3,Centre 4,Centre 5,Ecart-type 1,Ecart-type 2,Ecart-type 3,Ecart-type 4,Ecart-type 5,Période interpics
150,4450,0.12283209014661269,-0.11747407851726041,0.8277390646724494,-0.26333789517250816,-0.08640343713697135,-0.8212918438239486,0.46721121514682373,1.1273100734833725,1.7080153141994874,2.1746645328419794,0.028442741807688635,0.0010000049602058572,0.11779711636031558,0.06660911908948952,0.005013853560085768,0.624
150,4451,-0.0007336328083397954,-0.019529583327269645,0.9337449508363376,-0.026846904169787005,0.07695787551140143,-3.141588712241431,-2.984616613503638,-1.413581039546028,-0.2141994991064715,0.7568776883967521,0.010248861210874717,0.0024750211280722884,0.3011872931277722,0.0010000031944863421,0.009745588876099538,0.476
150,4452,0.1979099882592011,-0.14409041127624395,0.8462202654066119,-0.20111694530900653,-0.327159530245848,-0.518095376287693,0.6453384409731043,1.3121767701109575,1.7813177640485374,1.7799170554372221,0.042209918616001076,0.001003177359906431,0.129559501297691,0.000722357892632811,0.07181625245966011,1.28
150,4453,-0.05126855948674298,0.12925322736026215,0.7603393528239277,-0.058815449963113185,-0.1339635292614803,-3.1416318166420263,-2.7991830701099025,-0.9159411797801705,0.3680885125459332,1.4125045758244714,0.005098617320374306,0.03401337174010933,0.0010024711611923412,0.0010000000396488398,0.04290303200356036,0.514
150,4454,0.1685213919789762,-0.09066409272555753,0.7415394092899035,-0.21890956079007923,-0.35853187781782214,-1.1745694134080384,0.3219914908111401,1.0704041251248881,1.644755841946275,1.644116066500238,0.040338779258967714,0.00100000001229572,0.0010137561970842137,0.0005387907827659748,0.07640390039250328,0.956
150,4455,0.02450192672047813,-0.07465597879572927,0.8295212878707052,-0.05674818882645827,-0.10743197285410254,-3.1416217847281342,-2.9060384907749808,-0.715232909599314,1.0049475060040733,1.0050080318966814,0.0066983763851693814,0.0037299857475876406,0.0010000178786430105,0.000999894685749624,0.034143326633079,0.488
150,4456,0.0884106107846416,-0.2317113952559874,0.6663900873001879,-0.202181220807309,-0.3091839041768313,-1.4574943865886048,-0.09958939247691001,1.0230546663106683,1.60283921538311,1.6020938929031845,0.023733106809569998,0.0010000000000138778,0.001001839640918766,-0.0009047559675147707,0.08189142048485284,0.9
150,4457,-0.03285908387551773,-0.003900599243604233,0.9546223481952419,-0.030719316738386626,-0.0337631558695481,-3.1415144556414187,-3.1415926535897816,-1.1166778109129694,0.18479956785821763,0.184626860750632,0.015732778597576616,0.001,0.15968748541900118,0.001000000018963997,0.008806658858499473,0.49
150,4458,0.08430968924748435,-0.1689541221450314,0.8558543636626903,-0.18277972674591497,-0.34344483381459223,-0.9473084908438865,0.378885546159643,1.0575080017446987,1.5313308687283098,1.5314963868525384,0.015662034776258257,0.001000004326237285,0.10258627561918794,0.015655908578971305,0.07977588280702652,1.068
150,4459,0.04895546369046255,0.02076215346454819,0.8749129603137488,0.03498031732308659,-0.07765219740760576,-3.1416411862917495,-2.927638694200473,-1.2151579823393115,-0.298107332092006,1.9950197279563242,0.004618722691769323,-0.003785924634299895,0.23195255857076535,0.0010000009934136847,0.01809619184233277,0.52
150,4460,0.11768923453818178,-0.14448086763869336,0.8678564736643326,-0.19708628952612423,-0.24617243151232854,-0.7539572519334741,0.5183627878214424,1.272411671027469,1.8067906199391124,1.8065760818001424,0.031633760120952356,0.0010000316104746545,0.14873012560745696,-0.0006988717219806867,0.07909064151032837,1.128
150,4461,-0.03723909396086486,-0.0498792225216462,0.810552852865307,0.016187882130773348,0.03431760410251138,-3.141631390835726,-3.1415926535897487,-1.1181939687876943,0.6922153304517484,0.6920592917488437,0.00502322430817992,0.001,0.0010176646593741392,0.0010000005233868894,0.011861287596799342,0.468
150,4462,0.037517564155148835,-0.12194588958895236,0.6929041518597049,-0.2899264932568922,-0.2978704098203387,-2.8283137338028506,0.23496676356488705,0.931164579859501,1.5043329093224191,1.5040518343713665,0.016835410392362606,0.0009999999966485143,0.0010016824782261837,0.014526567023525174,0.01415912475164314,0.948
150,4463,0.258850185558913,-0.07743563646798254,0.978823949574894,-0.08573509800853911,0.006953970819812999,-3.141633307999465,-2.840738008652714,-1.1791075265725184,0.08704664783245747,1.0999847439614734,0.003682286755752877,0.003963566454072801,0.18957254882223548,0.0010000000214411822,0.011644146467860673,0.5
150,4464,0.1545998529528208,-0.13453629202629785,0.7297482565471147,-0.22162608233764758,-0.22053817491544392,-0.9557420170535693,0.5262566374151174,1.1638841023043627,1.674452937362974,1.6744959068334317,0.005428088952739719,0.0009999807479139635,0.07574524938280716,0.0005813923140547418,0.01885756222325506,1.088
150,4465,-0.5072315743737009,0.15890561179597681,0.9152859098402524,-0.04368109225190395,-0.07360219923225964,-3.1416811823111894,-2.8139301487168695,-1.208146380240797,0.19488788173637672,2.4554210066889475,0.0033101566662596497,0.004083164510281361,0.14489044943746704,0.0009999998767374887,0.004647309565221078,0.492
150,4466,0.5922064930721835,-0.131979809044682,0.7392417565206262,-0.23722827068482757,-0.23634491559464102,-3.1416670677451566,0.5197202661171405,1.2172390367504722,1.7453292519943293,1.74536496615051,0.003310154859010855,0.001000045065562393,0.07552456432566204,3.9819746887713954e-05,0.018592626069309212,1.12
150,4467,-0.6230676325663229,0.1351491331185932,0.7723987304041323,-0.044490388739135335,0.06236775138664159,-3.14161620217218,-2.6507333756008578,-1.0635594150084096,0.22907446432426004,2.552436782588171,0.003519555271881399,-0.01883233213789793,0.0011714027217658565,0.0009999999756583602,0.0048486122281488,0.488
150,4468,0.04957238486337329,-0.0868269152613791,0.6917619596493827,-0.22780729169812036,-0.2320440923012505,-2.8126394116521136,0.42765135598570814,1.1018672015189508,1.6436198299974185,1.6435482893911706,0.016755676736774888,0.0010000008907319327,0.002460556892624032,0.005259141156148794,0.005236494456735136,1.048
150,4469,-0.5021502511303322,0.2207341759764166,1.0054077494651692,0.07635648871346085,0.08057938355307352,-3.1417395195164124,-2.789629246345862,-1.2612535931784667,0.03821888872979165,1.8880468909409729,0.0031101115745457535,0.003964840696340075,0.1824561013557257,0.001000000033556491,0.01637769906844385,0.488
150,4470,-0.08608841595236019,-0.06791971835157189,0.7103929248339104,-0.14499193101969346,-0.08869224519648582,-2.8531360598127815,0.6374245965982864,1.2288665094809,1.7301524758900308,2.094421606605388,0.004059028764661909,0.0009997935569984176,0.07241855868085526,0.00036285088181220356,0.016612205970785138,1.156
150,4471,0.4757929093737808,0.47894896636564066,0.9179168832921148,0.056629575425129294,0.05940076001443011,-3.1427921782030688,-3.141592652442549,-1.486619565643105,-0.29982004539077,-0.2996044745529965,0.01185148702863679,0.0009999999999722444,-0.16709093969898117,0.0010003204378568045,0.007186981135002787,0.504
150,4472,0.03486444484044368,-0.08101191998931931,0.7853857057575669,-0.21057961563259084,-0.13083526341136786,-2.8019396341395897,1.0515520942503152,1.5214029671474039,1.9780752355318363,2.3704918774659793,0.004548796930948763,0.0008832582264740588,0.08886889511225307,0.003963525890006828,0.0038538395939102703,1.424
150,4473,-0.42463225107123076,0.2612409334425359,1.089710766018093,0.05935300784302345,0.002455820154126953,-3.1417083091465585,-2.8538477602160235,-1.3893829260339032,0.11635528345995455,2.6351062750743472,0.00294914462646954,0.003912098380644657,0.255658534983673,0.0010000090283336363,0.010502895956239168,0.5
150,4474,0.2037315243617807,-0.01628830903262619,0.8876016727758843,-0.11508796015039896,-0.11385979501219828,-0.3836013208800574,0.9120752473781126,1.357830162574768,1.7903700170540415,1.7903963192481005,0.004670531404061815,0.0010139304048019096,0.12345122533874332,-0.0005111619821456257,0.015302055200287447,1.336
150,4475,-0.3497464553583748,-0.35010702590568343,0.9204020719929757,-0.16565211500728963,-0.15888667055124625,-3.141758167721324,-3.1415926534946723,-1.364633554307222,-0.07696552158424691,0.7615216362308028,0.002983976036323149,0.001,0.1958422696082667,0.000999993628541084,0.004792512340621725,0.524
150,4476,-0.03253848332767665,-0.05500662442832028,1.0218257715951153,-0.10358764167490765,-0.102514720583769,-2.88455760742359,0.7711181898576895,1.3989556356692439,1.8706756300960572,1.8706919816086809,0.014216019768681044,0.0010037950905612538,0.14276360857354856,-0.0004986443946651828,0.01635643729773175,1.272
150,4477,0.11074185683732551,0.062124362451014326,0.9966791569030236,-0.08429996640815848,-0.006834294466798368,-3.1416438233517856,-2.608441872563523,-1.3114156816782747,0.028821950950047498,1.5852043213900187,0.005447521775229781,-0.014696514387819626,0.27635257276985864,0.0010000003416503192,0.00975158339747535,0.484
150,4478,0.15718846059479416,-0.13370325633322855,0.7697298372344453,-0.24045087656067093,-0.3025757507259632,-0.6709840023672886,0.6847966081910414,1.2491555267221872,1.7304711583686057,1.7296259119443564,0.03508769813593105,0.0009954361953255489,0.11598123202819541,0.003516068439990799,0.07834302718416317,1.256
150,4479,-0.029253154652532774,-0.03205619644273863,0.9016038065646687,-0.09560938789396747,-0.07496359524533501,-3.1416469405549377,-3.1415926535897514,-1.314451571597601,0.11140399480791946,0.6016922555369795,0.004416984479196638,0.001,0.2535388093605402,0.0010000006066189218,0.013679041501371237,0.528
150,4480,0.09913062129420179,-0.14438200827484246,0.8686900084584624,-0.20310332570312978,-0.2621883014731925,-0.7459327248239461,0.5650346497127111,1.25779187574936,1.7703621441580473,1.770399077981398,0.015026412692014197,0.0010002265597050244,0.14323357823173166,-2.182866388647769e-06,0.0667383834425978,1.168
150,4481,0.04067757581720161,0.014914146467057588,1.0166447449138551,-0.05382371574772399,0.12529865366804946,-3.1415215275355783,-2.9054836804078366,-1.1887341410848435,0.32282029773703125,1.8663104677514648,0.014017180624482607,-0.002734674510209875,0.2635036053160721,0.0010000006718930967,0.020310757812458086,0.492
150,4482,0.24245942726217615,-0.12556462307383856,0.884061298045183,-0.21798258869476872,-0.34297850906943655,-0.795362107183628,0.3700622925267273,1.236336253413084,1.7556357955170785,1.755880309445365,0.06636718062945057,0.0010000031218187757,0.14419660014629182,-0.005341816366203806,0.09753451265589369,1.106
150,4483,-0.07853480338425098,-0.08011237953229952,0.966652901265905,-0.044201908483331324,0.05629454360091755,-3.141655643327099,-3.1415926535896666,-1.2710098994238694,0.2922411770742703,1.344424833322933,0.003794443335939225,0.001,0.30538241027799773,0.0010000062273901314,0.020388228120279656,0.494
150,4484,0.21007965917367952,-0.08689880931579773,0.8378385137882763,-0.13043881662967421,-0.24263584637180796,-0.47622741772677674,0.5657844587413139,1.3696329776071026,1.8608843845227216,1.8610695875856733,0.05145385543493508,0.0010001975761498852,0.15060840228535657,-0.017227326544533607,0.06801398227641217,1.22
150,4485,-0.14231887688776915,0.13069612795584445,0.97084891948354,-0.032768956690241484,-0.07632053514965062,-3.141644527563669,-2.6437030248868876,-1.3399871031847324,0.05126141859011116,1.8231275137398628,0.0036227345571915237,-0.025796986108267035,0.2853386638717927,0.0009999998711169846,0.004756222794427277,0.472
150,4486,0.09547133366233405,-0.15693427158501286,0.7914650592674173,-0.23084468380788803,-0.2954753440833846,-0.5705553824688677,0.5711986626740625,1.3132873013877642,1.7706155885700945,1.770829693107592,0.004979375364346359,0.0010012742417884737,0.12993733114941242,0.00035136241324684644,0.06758061080829439,1.248
150,4487,0.12262815460515117,-0.03421079938257695,0.9569308980482818,-0.013806133750170441,-0.0973187093307011,-3.141640452714903,-2.92962977575722,-1.2034591236374506,-0.2800938028499641,1.7330942010276635,0.0038364987774885916,7.344965953891787e-06,0.25012054135744327,0.0010000004440614543,0.0049349588485164695,0.512
150,4488,0.103276229785848,-0.1973842810104308,0.8922686270704294,-0.2806381578173809,-0.09249869016171175,-0.7219164803161027,0.5552936165588077,1.2243687996198362,1.6963642244749384,2.244017001636604,0.005272464130197105,0.0010002030480575344,0.12348395588840967,0.05633658208070622,0.016810828438057174,1.148
150,4489,0.0876066471500174,-0.03306916958246537,0.934016623260756,-0.06989270854962462,-0.09729841080678364,-3.141642791468554,-2.8706910542659996,-1.258160596788608,-0.007533795332372233,2.3427240789088617,0.004012979101301607,-0.012660716404739774,0.24334585830525102,0.0009999999889255254,0.004543839479485557,0.504
150,4490,0.045494180752350316,-0.1898553375248775,0.849969160107932,-0.2449585091057016,-0.2864184708991457,-2.8518043072070207,0.2897585457170301,1.2350847894190315,1.7228710973522483,1.7232896284096293,0.004692247510225107,0.0010000052743781565,0.13057759111405914,0.0027013710320520764,0.06643407095307784,1.16
150,4491,-0.13765786986453013,-0.13825082819752013,0.8109764742208388,-0.0659917566346077,-0.0641173348582033,-3.1416449709841907,-3.1415926535886722,-1.0854963428825404,0.24672193614580284,0.24695303634786087,0.004030727062471765,0.001,0.0020020253398690393,0.0009999999623634395,0.011946398501012602,0.488
150,4492,-0.11299045957561032,-0.20063133455262835,0.5639257393494018,-0.2806636071648133,-0.3169762684127414,-2.785155023427026,0.27529420160312745,1.084978214699759,1.6022308918655344,1.6029577782336208,0.004369911528471773,0.0010000003699887619,0.0014164425125574578,0.014595999367475852,0.07065741243784648,1.044
150,4493,-0.08641767295661637,-0.08783869486675822,1.0050687359675592,-0.04041259128811211,-0.066488494654529,-3.141655763431909,-3.1415926535896146,-1.3168521937212287,-0.022072079533367206,1.3460590798639342,0.003776944410120438,0.001,0.27179632959712385,0.0010000000527078381,0.004974498685497425,0.504
150,4494,0.1350986773460424,-0.10694408184992754,0.868833060668424,-0.1992970268557206,-0.014681942749671138,-0.6989281627412611,0.6548050249119126,1.272628275437087,1.7731406533445457,2.59714281386718,0.027675157484298146,0.0010009704179682046,0.1379095356083467,0.04420018641713196,0.00843747918598643,1.204
150,4495,-0.046263048734748485,-0.04832388369437588,0.9722738319383382,0.017185132066778113,0.1006929071894165,-3.1416476910319697,-3.141592653589743,-1.2729595894453896,-0.08287174865583312,1.499412241913601,0.004190515814430918,0.001,0.2822495827949102,0.001000000037539416,0.010976883821422019,0.508
150,4496,0.024033973362447072,-0.2111775654803491,0.6920866389384666,-0.2201770500378467,-0.37554857403672004,-0.7040827467421832,0.47691647505269263,1.3101379086022926,1.8241782339788426,1.8242780575003592,0.014475473908548099,0.0010000936453484202,0.12577795503367667,-0.017206198018889257,0.107667066301016,1.162
150,4497,-0.07190783807586573,-0.0048500051232884984,0.8316320413247281,-0.057538956580758374,0.06236890704880536,-3.1416113571832254,-3.1415926535897523,-0.17782599925980025,1.8612446534107365,3.117912250909268,0.006928350067967868,0.001,0.001,0.0011857677016658954,0.02457093467131797,0.492
