Numéro enregistrement,Numéro battement,Amplitude 1,Amplitude 2,Amplitude 3,Amplitude 4,Amplitude 5,Centre 1,Centre 2,Centre 3,Centre 4,Centre 5,Ecart-type 1,Ecart-type 2,Ecart-type 3,Ecart-type 4,Ecart-type 5,Période interpics
152,4570,-0.0791863499940744,-0.06475013934539789,0.6857637606132794,-0.06719214972244317,-0.06341186707802651,-2.810802684022553,0.7165035878415912,1.299543974016129,1.7873221879730414,1.7873620423111922,0.004305214343577611,0.0009998241342613614,0.1484554319974563,0.00064397294226204,0.01617383227701632,8.854
152,4571,-0.16994321155018827,0.06488911628122387,0.30854483513120945,-0.032156254350986305,-0.021053675693166046,-3.1416413648250687,-2.8338844287333997,-1.3985060352065386,-0.1684303753676595,2.13102754731762,0.0035539938070577775,0.0035514741718579625,0.05720327442708993,0.0009999991870461291,0.01346992247181318,0.444
152,4572,-0.003556276866285209,-0.10474686840298712,0.654162652490004,-0.15822471364746038,-0.15728323898409188,-2.8729556888115604,0.9924746804938003,1.5151564581974881,1.9618258435344464,1.9618632323895058,0.011997841584389058,0.0009797092664899356,0.1317821771391534,0.004653622334530441,0.00466484622393654,1.272
152,4573,-0.15885828382083014,-0.15946520370434694,0.3626367576733977,-0.0007701740954910666,0.06712494994066764,-3.1416546620497896,-3.1415926535874292,-1.0263056039776934,0.2585350562804552,1.7781386244716981,0.0037724102599817583,0.001,0.0010858384437904536,0.0010000000045588533,0.005127774012768089,0.412
152,4574,-0.04305223494341922,-0.11775061448906958,0.6374917800043222,-0.10815011944287213,-0.1060096420257547,-2.6971314133608613,0.7355924272789449,1.3180023309716644,1.80833138109071,1.8083685778945886,0.004867322147207291,0.0009991254989867296,0.12518518850381563,0.0002765112083875634,0.016905072589623288,1.192
152,4575,0.15264244090207274,0.1532851489328963,0.4106084160781614,-0.008755025761150781,-0.005202279984553669,-3.1416544274919542,-3.141592653588103,-1.3128706555994862,-0.046889442590893254,0.21884339141412854,0.0037777381172482377,0.001,0.08563507868552994,0.0009999999982860932,0.010214363925540827,0.448
152,4576,-0.05495772897703551,-0.09570798955680528,0.6704058963358733,-0.05382472410640419,-0.04931800149824898,-2.7811569825228846,0.6659236299633893,1.292782617366039,1.7940767246536966,1.7941141215998715,0.00456918472386102,0.000999841048224647,0.13457643132677616,0.0006564297108300766,0.015570020986778134,1.16
152,4577,-0.18139428866579715,0.09447877793135848,0.3452546025663901,-0.012782220889937196,0.03683432939524528,-3.1416386649669334,-2.822727920158385,-1.290145833960726,0.07588388052149747,2.352345888443068,0.0036594705560316554,0.004020306423663636,0.0005397550571207848,0.0009999999819658148,0.0052586399421874815,0.444
152,4578,-0.03175684731818607,-0.0924526350519055,0.6798549480835766,-0.11711608299891905,-0.11600191495914601,-2.5013754580108007,0.8486766968129484,1.4299505942441406,1.9052387083594666,1.9052876067455584,0.014532522918841674,0.0009950758454020372,0.13164985191692244,0.004729724629079904,0.004742503459557735,1.212
152,4579,-0.13773021446952047,-0.1387217280243915,0.44463225127513323,-0.0012428793465689154,0.01567329189014584,-3.1416673897879925,-3.141592653589045,-1.3070828305228963,-0.18055130193048127,0.6138260444735233,0.0035112294112138345,0.001,0.10063006323929218,0.0009999999371405601,0.008812927992614085,0.476
152,4580,-0.042653321805847876,-0.10982119278152913,0.6636863949262496,-0.13174538441076267,-0.1310496405014724,-2.836837229747646,0.8343721619390441,1.3713598465793142,1.8204404689102023,1.8204858921212603,0.00455176562556529,0.0010106834769295072,0.1275902014037784,0.004629011247209561,0.004640502866627431,1.264
152,4581,-0.11314342806765587,-0.11483483965511257,0.45563463803183696,-0.014491815563037106,-0.005083426799599415,-3.1416795949927727,-3.1415926535895244,-1.6307129944470475,-0.17232364765386188,0.4639610321611054,0.0032828384870617192,0.001,0.10894272809924041,0.001000012710485442,0.01029861560970481,0.468
152,4582,0.016536845310768603,-0.09858414369034361,0.7201062875395786,-0.11301039082213922,-0.10989130181367608,-2.9039956190550056,1.0295978531152283,1.5049464488201596,1.9134606539351549,1.9135257526197873,0.01244801448604639,0.0008918029729608194,0.1272290271761071,0.004177545832580579,0.004194931420075932,1.428
152,4583,-0.09349575690120834,-0.09498450248773924,0.4627286784631563,-0.017666463742147313,0.007121836175721888,-3.1416614313973636,-3.1415926535895844,-1.4566533086073157,-0.32843923197283814,1.2423762200318178,0.003628144160401349,0.001,0.11490918549832044,0.0009999914268369872,0.011333937025539654,0.464
152,4584,0.036242034277384996,-0.11029024490191917,0.6759125420714427,-0.12614694690837286,-0.12505806219861276,-0.28675694023766746,0.8607102736338906,1.3917918267419016,1.8355481348369316,1.8355986207223967,0.008294603064712093,0.001019359446254419,0.13523409352145477,0.004573880238059311,0.004586685278977212,1.296
152,4585,-0.09004174697393658,-0.09176011665097333,0.44756429562118233,-0.03770423623790197,-0.04083815903001097,-3.141665553468134,-3.141592653589638,-1.4632209138221943,-0.3120787403885782,-0.31192150356484194,0.003538534514836422,0.001,0.1178787541528452,0.0010000386008586206,0.007968894961033297,0.468
152,4586,0.035632197668289886,-0.054500684943109695,0.6695481874363599,-0.036110154751387596,0.4758726404927903,-1.5747736306337294,-0.803304371212561,-0.5005855649484754,-0.24655607803295093,1.4475206908660059,0.010113929324124067,0.00030057858725518385,0.08551260734725077,0.0008058647454196606,0.1529401618384326,1.344
152,4587,0.030077057142951034,-0.08366622720621143,0.6697683578003361,-0.04659987076544084,0.47139775123150296,-0.8844574930948872,-0.24057286173558057,0.028260454344312055,0.25436378972076723,1.7123767601899036,0.010010220282065064,0.000661370074420521,0.07822838329630308,0.002484353374655433,0.16377760732246033,1.816
152,4588,-0.004250110404912099,-0.1168089468406428,0.6285697639702408,-0.07963714280923537,0.43731416952930074,-0.9244226836784847,-0.32492092069691086,-0.04986127103811306,0.17333009576196873,1.7116972116508709,0.009999002900414776,0.030325473642590597,0.0757160989627901,0.0007059121425793692,0.1644662149762075,1.736
152,4589,0.013666114155412102,-0.08665545801466712,0.6306774414455908,-0.06619260211255173,0.44721358783114284,-0.9248111803809648,-0.3273991237930549,-0.053484148757617214,0.16897550702954756,1.7021466248260613,0.011942472885372755,0.027735019555803105,0.08099490119969119,0.01316112319377473,0.1691864836352242,1.744
152,4590,0.044115759400984896,-0.038185536313915,0.6718452304517222,-0.04601232736211344,0.45931996427195754,-0.8123062009328855,-0.24848460181793947,0.04879975829946404,0.2926716780967005,1.8434389226768566,0.019387045833910883,0.003350757356196769,0.08352380873631854,0.0026036924584943786,0.16971554242965098,1.748
152,4591,0.06229394510033914,-0.055098938000545224,0.7324148129268818,-0.06953942608969767,0.47062100339490376,-0.8181927530480639,-0.1955668155284534,0.09199511966648771,0.3314263472287072,2.031886680106635,0.02102158868064409,0.014435518262537923,0.08555001325663286,0.0025608665781749465,0.17398271846762903,1.64
152,4592,0.016412941682300376,-0.07213104564850918,0.6097611357210158,-0.12576658728238913,0.44116661654669076,-1.016863703491245,-0.3885471867922519,-0.05784002457366531,0.18987114719030707,1.9014673118575078,0.011531220121348993,0.01531860358169258,0.09182621745910502,0.027157452099927544,0.16036984262237547,1.508
152,4593,0.050722653289223256,-0.09539611593094958,0.6779536235413484,-0.08281857229799655,0.4665343802540964,-1.1479666951904681,-0.5042141161705378,-0.19399563665936626,0.03865103314385217,1.6289392723102105,0.016487752598611342,0.00022262145716361826,0.08459072680915598,0.02004277527141339,0.1480769004825192,1.534
152,4594,0.02735496136751006,-0.09853528860907794,0.6607837569203919,-0.08372084006389932,0.45568356971482904,-0.9614027474495712,-0.2414610060079989,0.03795253728293563,0.27986832112494847,1.8016864529507695,0.009968904666247625,0.0026350622474015013,0.08848918282312782,0.015893689062687302,0.14692996818355153,1.704
152,4595,0.07194795953135005,-0.18393281309988352,0.5996584179511747,-0.1917740196392191,-0.06600095031857936,-3.141610460352627,-1.1895712903473403,-0.9919575892128352,-0.8319761032668825,-0.47318655189983116,0.009998318244924488,0.04129671236515517,0.05713647756933666,0.03942993433444273,0.01604328186163541,1.616
152,4596,0.5172482872014181,-0.012425689196891854,0.6622733123875821,0.056183984850964014,0.09644676142884688,-1.9724751444849276,0.5611879464995984,0.8812614529509101,1.1482143972683871,1.473786325689271,0.18485057860158727,0.0004806183007158026,0.0632842560693525,0.0017580595185359411,0.02648096431425271,3.084
152,4597,0.04436765596569063,-0.04932976077924452,0.66868419652172,-0.026209734218466053,0.4516476136378363,-0.8991857940834465,-0.35311125028221413,-0.0689329742279154,0.17094407356004632,1.6854170657529635,0.01319411955909326,0.000677493685727727,0.08177364528582406,0.0024268602737260677,0.1524954255658076,1.708
152,4598,0.015534608171229014,-0.07947762496873899,0.6860472609135758,-0.04519059713266818,0.4441130673278845,-0.7331650984909311,-0.13992083185718512,0.14836297888297217,0.3838434395333469,1.9867252438301457,0.010014002031596648,0.0026925469127730617,0.08381131799134717,0.008915930794705903,0.16115157479868986,1.746
152,4599,0.053734497713460165,-0.07483329497594404,0.6064651594507274,-0.10369504253996496,0.43134885297351144,-1.020344643977583,-0.36953929474170055,-0.06420554354406205,0.18472152790454144,1.8641044890622231,0.01945962560957093,0.022845338190754412,0.09004027631358866,0.023318211404151457,0.1573617163322299,1.56
152,4600,0.04767070119851827,-0.06441337218504228,0.6233942517014744,-0.10063795451243499,-0.0806972434003114,0.23658253477289837,1.4199573392068277,1.9326482241881382,2.32633001197081,2.3265572394422493,0.019187150828983743,0.00881493082465356,0.1387011889048833,0.0033369587757154325,0.026721877377530776,1.568
