Numéro enregistrement,Numéro battement,Amplitude 1,Amplitude 2,Amplitude 3,Amplitude 4,Amplitude 5,Centre 1,Centre 2,Centre 3,Centre 4,Centre 5,Ecart-type 1,Ecart-type 2,Ecart-type 3,Ecart-type 4,Ecart-type 5,Période interpics
180,5419,0.10265084784959601,-0.03130380407115088,0.4539259844625812,-0.05382536723814771,-0.054736382334233426,-2.84722745918226,-2.661587611858589,-2.5794332699861653,-2.522321798923977,-0.34035513838699116,0.019280982174734295,0.00054590180402045,0.018023325382638927,0.009089610550900826,0.009999994413288317,3.164
180,5420,0.4891514803491551,0.060406990696039005,0.48044111244217735,0.0005756664446724496,0.05235264697111875,-2.740976333366574,-1.2062063889282006,-1.0640131961220733,-1.0119351715620106,0.3737064380394898,0.022198709636430936,0.008000079958529452,0.01929424145994088,0.0010247433728332858,0.01414567791622019,11.956
180,5421,0.12021786850667437,-0.028941678738218315,0.48463202954972984,-0.029505521824606282,0.03113373156594437,-0.4218399317302879,0.04668537220331266,0.356060809946936,0.5268169989956698,0.7033416386162669,0.027518554386961026,0.0018742464580845098,0.054120208131099516,0.0004697692140624437,0.00999997461667605,2.536
180,5422,0.038577417745154684,-0.0529118198487372,0.35190709236310863,-0.1384110338496785,-0.12086772498927394,0.5286947882664038,1.514878010954301,1.9829121733232824,2.276936612525927,2.2774844250512443,0.010488829126586675,8.235085626165285e-05,0.06727111938548735,0.00299673901514832,0.023510015106129427,2.02
180,5423,-0.08228568217565235,0.10319733883012844,0.375685634980639,-0.010450522392967863,-0.015379983920835488,-3.1416512436028814,-2.598017726675473,-1.4278717203105744,-0.20200928371373697,1.9852782679970524,0.003745118017307585,0.003956719846625167,0.08796142110985535,0.0009999974684104787,0.01250684534681616,0.452
180,5424,0.07677425043458268,-0.03743400570793004,0.45677365984618945,-0.09469707203828658,-0.09160401639493984,-0.5392754525364787,0.8718957225655585,1.5090104358435812,1.923265750077711,1.9233321311676645,0.004881244442693904,0.0010145085806597945,0.09648716437054325,0.0044065431670817085,0.004423487719372177,1.352
180,5425,0.08974754449803199,0.09223253541870785,0.34751495027619783,-0.004711091511703338,0.021204658787137134,-3.141682325025899,-3.1415926535896816,-1.662500183412294,-0.5752211885110292,1.219929711816363,0.0032275515607121798,0.001,0.08390762090878288,0.0010007455929658396,0.007462239628622624,0.464
180,5426,0.040134296589340736,-0.021816712733867854,0.5119824871620707,-0.08452058687259079,0.022278935700963495,-2.8447524500400245,0.9276345662936359,1.6209169035801627,2.0157000216170644,2.4489401103394854,0.013053545612762658,0.001204740567597006,0.09781803682665485,0.003896904095515961,0.006403465977439621,1.524
180,5427,-0.13280372261083528,0.07563356165403953,0.34516121079529666,-0.00031823525645093264,0.031955923973760264,-3.1416859034914615,-2.5571707132130523,-1.7590755770762831,-1.073424279500407,2.276072730886502,0.002797845480479993,-0.012219262045206814,0.08296967173817327,0.0010089042362441672,0.004852901480726897,0.508
180,5428,0.16924894338857718,-0.03710372761883559,0.4172381832686648,-0.10271059783895183,-0.037835385354451634,-3.1416696623227756,1.1072819298161534,1.785963854125908,2.1241208651674,2.6443307283219877,0.002723145951459263,0.0038781584910098045,0.07713220932769371,0.003476141872598253,0.003908009304210959,1.728
180,5429,0.11686082415834906,-0.05519682289983366,0.2756405939092933,-0.03127682573244778,-0.010463935276929619,-3.1416478908902583,-2.8707604073918445,-1.3890179976578925,0.09260930724909533,2.315242381479552,0.003621829625929653,0.0030649339475819974,0.0570748414284163,0.0009999992155927387,0.012367057203973809,0.496
180,5430,0.0007673254862884181,-0.05663425132122041,0.3755984402685942,-0.10334820698322932,-0.10164807764688875,-2.884554944556619,0.7996781388631208,1.4282020681836194,1.8563956589400226,1.8564244977966904,0.011280270833313412,0.000995226792968983,0.06872929495963565,-0.0004050495380016348,0.01588354575532798,1.268
180,5431,-0.17811746330988618,0.04595516839342113,0.29858745842534273,-0.020553425588761845,-0.0518073250366013,-3.141662370519249,-2.8391533923696235,-1.5376759819456218,-0.6440922122716417,2.3922416112717633,0.0031443636020378318,0.002881513787625738,0.05954750190149868,0.0010026434818570231,0.004022071284988095,0.492
180,5432,0.05304907720746354,-0.07134270705457191,0.4155314164216944,-0.08376829932770886,-0.1856335505443331,-2.8538881571690267,1.1582258295538395,2.218583617386648,2.7025627766319085,-3.1416414407441713,0.004401766209885239,0.000956389240378385,0.08135275645406492,-0.01629026179825984,0.0036319996335365443,1.42
180,5433,0.14888359813603758,0.14888382607106954,-0.003941463043609638,0.007421910397318481,-0.07221273649915741,-3.141592686954803,-3.1415920672816466,-2.1630637942749305,-1.4420425295166261,-1.4418442955888187,0.009992752531194317,0.000999994653387958,0.0010000000002983725,0.001,0.01636482717882022,0.312
180,5434,0.19698775682429798,0.19594296812015843,-0.063741202000956,-0.06217375329666582,-0.07230612326942931,-3.141622301977336,-2.0544745520111274,-0.28559933214452693,0.598837309335319,1.1696200207492535,0.00445398257684471,-0.00041028287477251705,0.0010000000002428613,0.000999999916358573,0.006301627913572465,0.176
180,5435,-0.1851254367901899,-0.1854195527778656,0.0543557944558312,-0.008718370917002193,0.020722554622689966,-3.141635907466505,-3.1415926535798198,-2.4809921907400008,-2.088445996054162,-2.0884293904561764,0.004272852109220021,0.001,0.005154000184553036,0.0006649381216531925,0.008649433820926934,1.116
180,5436,-0.028357155495428665,-0.0425531914889642,-0.028368794326577518,-0.028368794325744906,-0.028357155494734776,-2.7755575615628914e-16,0.0,0.0,0.0,0.0,0.009967338467035637,0.001,0.001,0.001,0.009967338467056453,0.292
180,5437,0.26362869302170033,-0.025583922074202906,0.40175364627321297,-0.035344103597750365,-0.10362413657831707,-3.1415936386530614,-2.274946404628025,-0.19499540608488453,1.1049739678143409,1.1044341097138615,0.009781156076926435,0.0009997223311815065,0.001,0.001,0.014929330505276629,0.272
180,5438,-0.09456543036068982,-0.14144116899723247,0.013510136050753182,-0.045210515169111065,0.051476865290543884,-3.1415927277332263,-3.1415926535899286,-2.1107575641306333,0.294524311274043,3.092595871293159,0.009983814154183547,0.0010000000001179612,0.0010000000008049117,0.001,0.009825921035249941,0.408
180,5439,-0.08190851199811244,-0.14970521441935364,0.13998640483914307,-0.0238512893532501,0.0008113743580811222,-3.1415926633355538,-3.141592653589831,-1.0116993291221368,1.9701513251325826,3.088421030864489,0.009997701735421317,0.00100000000006245,0.001,0.001,0.009815073096549843,0.044
180,5440,-0.1174693981968443,-0.11752901050249162,0.08096749730055065,-0.01078373622182156,-0.09633135530129497,-3.1415979890117134,-3.1415926527792473,-2.4513058764373743,-1.7614710254231787,-1.7611393161239137,0.009035028361245269,0.0009999999999861222,0.009735183957032928,0.0010000000009020562,0.011982800489436186,0.328
180,5441,0.13063860945428973,0.1307647175635227,-0.009062974304625956,0.004205411096885485,-0.07282218461185128,-3.141605018188571,-3.1415926533524043,-2.5255945903789807,-1.909595534508384,-1.262460940070985,0.007789695533503801,0.001,0.0006377211277723294,0.001000025300823936,0.010531420680710514,0.424
180,5442,0.12940043568605658,0.12945105530496975,-0.022205919721615695,0.02230608959861875,0.07413040603097952,-3.141597567580164,-3.141592651763544,-2.29151458462155,-1.2196771478642725,0.40666910861042327,0.009112829283991165,0.0009999999999097944,0.0010226735185210325,0.001,0.004047005624921161,0.388
180,5443,0.2138997833840654,-0.020555863091899742,0.3456734323481798,-0.03676736158050868,0.0049059066073744145,-3.1415926905338876,-2.128175668560819,0.35469594476013766,1.9254922715550338,3.090978711117483,0.00999043280739238,0.0009999999994310107,0.001,0.001,0.009881295660156232,0.288
180,5444,0.15132512773486306,0.08235966715614493,-0.05783207247214201,-0.05242518521936695,-0.005655880822521804,-3.1415926594827273,-3.141592627652693,-2.058284842007097,0.48748851521220926,3.0875135169067245,0.009998477201050527,0.0009999999877459134,0.001,0.001,0.009778946497816477,0.292
180,5445,0.09917318687102664,0.0991735537192451,0.08264462809964848,0.09917355371841244,0.08264426117662874,0.0,0.0,0.0,0.0,-4.163336342344337e-16,0.00999652204443059,0.001,0.001,0.001,0.009996856094343321,0.176
180,5446,-0.1441913809675769,-0.14428482219275096,-0.02785288851342663,-0.039355532107626025,-0.03160775889560145,-3.1416026126040455,-3.141592652696195,-1.5296760041039308,-0.2138256779930231,-0.21410899401288222,0.008235828803691515,0.0009999999999861222,0.0009999999999028555,0.001,0.00820070658933937,0.12
180,5447,-0.04431144658076361,-0.04566210045714438,-0.045662100456866826,-0.045662100456311715,-0.04431144658076361,-1.3877787807814457e-16,0.0,0.0,0.0,1.3877787807814457e-16,0.0080863721498053,0.001,0.001,0.001,0.008086372149826116,0.644
180,5448,0.0,0.0,0.0,0.0,0.0,0.0,0.0,0.0,0.0,0.0,0.009999999999999966,0.001,0.001,0.001,0.009999999999999966,0.336
180,5449,-0.24954866861503427,-0.030920982208305307,0.3762296565172547,-0.069443203075597,0.009887923706409459,-3.1415928860258684,-1.828688261044805,0.14066832777267624,1.7349093758630199,3.0947528481598923,0.009944013299987798,0.001,0.001,0.001,0.009947387710030854,0.288
180,5450,-0.13525152612766356,-0.06913600651369509,0.006515262357898263,-0.018334303848181945,0.010575607201102474,-3.141592669946859,-3.141592648354438,-2.154976778908692,-1.3241423581246237,3.0897239974461272,0.00999592468893219,0.0009999999994934608,0.001000000000194289,0.001,0.00986829383691319,0.296
180,5451,0.276860910657819,0.1927368555235694,-0.055379542689868395,-0.06385272566807564,-0.03546066018158186,-3.141611645174499,-1.85543754108537,-0.5271128613405693,0.08433805781449077,0.8014040185606257,0.0049770167490745315,0.0008118588425688475,0.001,0.001,0.015018961865575732,0.188
180,5452,0.18379063484728148,0.18397927513872453,-0.10853332079507846,-0.08987478723588056,-0.09566256797236314,-3.1416219773026746,-3.141592653547023,-2.747418214473057,-2.0422053535445253,-2.0422082431988393,0.005018739015244248,0.001,0.005715231186350216,0.006588088514051084,0.006589192804111184,0.96
180,5453,-0.11921111652022331,-0.09001717783649854,0.04376419747872502,0.024806138831072626,0.017040881516548916,-3.141592923399189,-3.1415926504078246,-2.224339324080636,-0.9401846627531496,-0.940230703540417,0.009942279819108125,0.000999999999805711,0.0009999890383448054,0.001,0.004827638508443363,0.252
180,5454,0.13229925460981717,0.14829967254318777,-0.04784287003603816,-0.02262747264898109,0.021080147003713565,-3.14159270798261,-3.141592662927066,-2.1865484868984777,-0.17592918860102913,3.091402085745499,0.009988250675445022,0.0010000002634489849,0.0010000000433125758,0.001,0.009844134623033752,0.296
180,5455,0.05041993419191437,0.05042016806761096,0.03361344537877742,0.050420168067194626,0.033613211406075094,2.7755575615628914e-16,0.0,0.0,0.0,4.163336342344337e-16,0.00999850943460663,0.001,0.001,0.001,0.009998902657997978,0.204
180,5456,0.19388154799415652,-0.11392957133735107,0.35588906388371855,-0.06870498588655882,-0.08553623995454263,-3.1415998530232847,-2.4241524642962746,-0.7853981633974483,0.2731819698773732,0.2724908148200253,0.008526030729382973,0.010145287208252292,0.001,0.001,0.011849656830407685,0.272
180,5457,0.11929091546961426,0.1200851546654147,0.24360577277610526,-0.03131896526556627,-0.01345728041690698,-3.1416486503309553,-3.141592653589068,-1.031330856785891,0.3173325912715995,1.285235380338826,0.003938464661592812,0.001,0.0010309100000456253,0.001000000264559208,0.01261992129313434,0.464
180,5458,0.07768320217872728,-0.023705644598541572,0.4100670398742282,-0.06604800612367437,-0.07608182412472278,-0.8753666010075357,0.3125962839394223,1.2351422580004217,1.6880202245654723,1.6879607705061745,0.015081684153869469,0.000999999655136973,0.07731950417927305,0.0007153018500006837,0.022245236900819396,1.12
180,5459,0.08983134294612956,-0.04899861758926744,0.324883253251632,-0.044547815883136714,-0.05057755935123758,-3.1416370725766893,-2.806579514673159,-1.1957681930843456,0.2232603916256895,0.5897376309702065,0.004257056629490275,0.003485429453066839,0.042180595960442505,0.0009999999281685703,0.006026322028178081,0.488
180,5460,-0.0663057981054539,-0.033357925113174244,0.43428912517783363,-0.07105086441808348,-0.02017279469197541,-2.8633724440006505,0.5726861608127634,1.2927547899799585,1.7835084808064523,2.3398512191688194,0.004552957074844814,0.0009999963343280674,0.08179744901198091,0.0006862455686613712,0.014575711603713138,1.088
180,5461,0.12310985989091108,0.12335009657992527,0.2616051674299444,-0.03495524293975647,-0.10672040211974602,-3.141615344389786,-3.1415926535807426,-0.09448398958164805,1.6062278237022944,3.1180354325712143,0.00597305575527174,0.001,0.001,0.0009993838072295804,0.028138431820906293,0.448
