Numéro enregistrement,Numéro battement,Amplitude 1,Amplitude 2,Amplitude 3,Amplitude 4,Amplitude 5,Centre 1,Centre 2,Centre 3,Centre 4,Centre 5,Ecart-type 1,Ecart-type 2,Ecart-type 3,Ecart-type 4,Ecart-type 5,Période interpics
19,441,-0.17787069875995515,-0.016890281504813216,0.3413383511612691,-0.17020853644387932,-0.11086439151336464,-3.1416042739831154,0.015031543797080237,1.187491959969348,1.9390691439628807,3.111581907293942,0.007606997623439384,0.001,0.001,0.0010042949360318234,0.03258940499384744,0.914
19,442,0.15334265934731084,0.06562339497036004,-0.04082571585931297,-0.035307070665036015,0.04350628946158209,-3.141592656859083,-3.14159264353371,-1.9290481206253116,1.267660193553776,3.086520554665717,0.009999117826457416,0.0009999999980640486,0.001,0.001,0.009889653471522831,0.332
19,443,0.13237349916922259,0.14315815131658596,-0.0446317895278411,-0.016173742418040375,0.13237349916894503,-3.141605653051363,-1.411440177699762,0.7740155813192242,1.6846221475773007,-3.141605653051362,0.007673078467957918,0.0009999999992714162,0.001,0.000999999588294608,0.0076730784679856735,0.124
19,444,-0.1304679480832295,-0.13060930341303192,0.13704382068792298,0.01285071460027326,0.008224370375000964,-3.14160655957819,-3.141592653428404,-2.4595209988093134,-1.1262313286453978,0.3854398626243415,0.00750291150012875,0.001,0.008796926012056097,0.001,0.009645387767331605,0.628
19,445,0.12313730814123532,-0.0023415526978891803,0.3133353479722208,-0.0942706924011991,-0.09261885135058966,-2.3904980078625253,-1.9560859918577937,-0.9681637737477979,0.09879222181099978,0.09914564349407465,0.011977035696924777,0.0010000000057939764,0.001,0.001,0.0067869160460431776,0.22
19,446,0.15379043906713497,0.1540022637198144,0.23701925071411326,0.021019748508905065,-0.011406599393442827,-3.1416184877039846,-3.1415926535638636,-0.24336281119357628,1.3716812994862149,1.3717129673343758,0.005464449431034638,0.001,0.001,0.0009999646384946095,0.011041666644024907,0.416
19,447,0.18287513138784992,0.18300543439859238,0.026954020074458077,0.029360069015215276,0.007728992693105389,-3.1416115525846178,-3.141592653123319,-2.2136965495066487,-0.9941748903765171,0.3313828444968334,0.006518064801685763,0.0009999999999930611,0.0008103154633180572,0.001,0.009983366585173915,0.72
19,448,-0.22663062645318674,0.07387439985093341,0.3756564312790874,-0.07346713566919381,0.043516400792503324,-3.1415972490616455,-2.4391507040726768,-1.0718374935776942,-0.03695991357164438,3.1046547245216827,0.009027030237519452,0.00952870723738741,0.001,0.001,0.01843141345061024,0.228
19,449,-0.1977723738430814,-0.19815580800569663,0.250429686186601,0.009607883874572743,0.04474172238056036,-3.141650602318025,-3.141592653578992,-1.1015973353259385,0.26927937030769755,1.2972417464506265,0.003856990982456232,0.001,0.0010401199822530618,0.0009999999886549085,0.0056841008799529535,0.416
19,450,-0.00481812709618844,-0.06394095747453397,0.45603986161361343,-0.08096614959133018,-0.07715104087225054,-2.7787901994182267,0.832810651158747,1.3279350138586905,1.7563236416153136,1.7563715512622615,0.01297400432685415,0.0009998015119684336,0.08040259752454995,0.0007052589608623217,0.017201506954171414,1.124
19,451,-0.18011248726276996,0.2589427773199806,-0.001547715021410445,0.01060174871738884,-0.011444074716978269,-3.1416425507001384,-1.1798001422468838,-0.2654867031203242,0.029498522568930235,2.3893761685134773,0.0035481736989886772,0.04390211068588848,0.0009999998902475151,0.0009999999830344044,0.009211015168656923,0.436
19,452,0.08354685560751034,-0.0719326066925732,0.475208230728984,-0.12924526442832635,-0.03136947669437615,-0.022160910156967056,1.042337931369354,1.4656730215115563,1.873293483652963,-0.8381127134581878,0.009550586628170555,0.0010741725268080251,0.0865111667928191,-0.0005346541673288968,0.006593146822231027,1.268
19,453,0.16657195253885773,-0.04993656619054552,0.2601860550970758,-0.0198424160804381,0.04065879060851414,-3.1416404975179044,-2.8605761919907344,-1.4264728030989346,-0.19958353328663683,2.6388958005303293,0.003598086135991598,0.003066001133914358,0.054109198270659464,0.0010000005327890906,0.004798535578266465,0.456
19,454,0.09147398842844125,-0.041210293763074626,0.4410612676432222,-0.13762366726234412,0.27914590207677764,-1.3662923187169433,-0.6961984246114679,-0.42593717465233105,-0.2088598177018213,1.5838820531605549,0.010596210746148206,0.0007168648961862213,0.05188877712335081,0.0008177570316795786,0.07078012670789063,1.244
19,455,0.06048120623842397,-0.07199879731969686,0.3668869725987716,-0.12568652983690426,0.3011978529401995,-0.8793446846420383,-0.30814715488714906,-0.05978130972127596,0.1417610971000307,1.758727764141655,0.00994213374239143,0.000695212311457556,0.042289282595304796,0.0026353371918159587,0.07621245124920079,1.644
19,456,0.09416907987933593,-0.04148768963110874,0.473911029537981,-0.08401804600177605,-0.09197140075579886,0.6067599909999274,1.5030134801887827,1.8455142241979376,2.163252977889312,2.163146468662096,0.007676777819703005,0.0006097844553108479,0.07326043076424832,-0.01282760952084105,0.014295592789495921,1.7
19,457,0.09344985931758121,0.09460238596697623,-0.052298030510624066,0.2064449894976622,0.24994985007252335,-3.141651255032931,-3.141592653589569,-2.8510019043700776,-1.4446742527270509,-1.4446989660072103,0.003892129192415994,0.001,0.0032446289686256444,0.0007808473120655702,0.061815048309630874,0.432
19,458,0.0953594794418273,-0.02776545849396892,0.47940568838793673,-0.07702832881235383,0.3138231328471224,-1.329786276230529,-0.7229240147930063,-0.43676119289844073,-0.21378777075117672,1.6600467272910984,0.006968123634720452,0.0007523746238028994,0.052837376164133684,0.003135966017120789,0.07818114996399317,1.212
19,459,0.08890744572628163,-0.03592348977724666,0.539320540428048,-0.12390224945788302,0.3319954208226016,-0.7075609610318654,-0.17385974627809525,0.10965587250704696,0.319431521807833,2.0095145397087957,0.010736204945086354,0.0008492244979511621,0.049900640261542825,0.017359788195578745,0.10078284261918385,1.604
19,460,0.11122068545652226,-0.030092903437765647,0.4234049407629998,-0.20063023256044854,0.2831051777718644,-0.8298930537763276,-0.27093396760766186,0.026015826860742594,0.2454690803298723,1.8628208031416087,0.030780327450588958,0.006278248680254398,0.052736248609934956,0.043972619526737734,0.09808746651071609,1.504
19,461,0.11335138521037687,-0.04970082799254495,0.44954294414378254,-0.13376646882225826,0.3192533444261977,-0.9437504536062828,-0.29738243611906195,-0.003540949602414866,0.21957419793205263,2.05561045981191,0.045213432561869264,0.010535880597252849,0.04745552184220575,0.027970770241271224,0.12264884997508159,1.464
19,462,0.13424530632176154,-0.017009733279448984,0.5275665999452253,-0.1232404349310093,0.334981774422585,-0.8771804631106748,-0.26360028819726533,-0.003653538478998604,0.21168035943323624,2.0353269295821184,0.05175015272506021,0.0009109654454619579,0.04956441976113834,0.02659591957751807,0.12127152832445673,1.452
19,463,-0.06289964926045537,-0.21108443767475726,0.3526015508177197,-0.31561114617514446,-0.05121977479209593,-1.0303880187436436,0.19790710730459285,0.533417721942716,0.7964615077661374,-1.030395237211073,0.029661894516995864,0.028667590287421683,0.04713552104714223,0.08640853010714435,0.026572590488053695,1.452
19,464,0.014847182656311955,-0.20163948676786958,0.871031953982346,-0.3489071651695367,-0.21309409805698698,-3.1416049726913813,-1.6921374760919086,-0.9559353796165522,-0.5554333145243933,0.19968709968946374,0.009892976437994262,0.0681302897777213,0.14604099773615986,0.1063777592741612,0.08057419552566897,1.02
19,465,0.08870268514933012,-0.052632375134891995,0.47966598344789707,-0.10782556851912217,-0.13993299508223725,-0.31531811067280674,0.18614120547869772,0.4147907334355977,0.6116323136160041,0.6113715474365073,0.033555727055831965,0.0007674620190041291,0.040132317221522475,-0.00016290038895336399,0.04583168419006756,1.88
19,466,0.11188883848556849,-0.054537793847637364,0.5123878722745611,-0.15727944542206604,0.31572263072220474,-0.9294915850009827,-0.3439290328035115,-0.059664372761445844,0.16337014760180665,1.9366579570782394,0.032622693229421705,0.0030194339870882533,0.04829109332979329,0.031754163115147276,0.1021689525055468,1.432
19,467,-0.03362679771481372,0.4402526260350701,-0.18141098443740075,0.2015008800944719,0.2848578315164616,-0.35643550640364224,-0.057482697654942794,0.14947133717378297,1.8491016045428759,1.8484731748512542,0.010052385981802426,0.04935625380731493,0.03424558793840055,-0.00017422723393268214,0.08743000721026355,1.488
19,468,-0.06070946831014233,0.44753322848512167,-0.1624343750184445,0.20928223467044435,0.3161749580628018,-0.23165669698605884,-0.0033979416341728364,0.1988885741666206,1.8332453646850757,1.8329983793114475,0.010391743179440456,0.04398879787755654,0.0351599933959061,6.042582021799791e-05,0.09007244519554414,1.544
19,469,0.05921084646766258,-0.07962356810464176,0.47959556278008825,-0.1799358520039717,0.3001187639382633,-0.8545883852128797,-0.27684589737857207,-0.05144099049374317,0.1482992906917195,1.8978787323118447,0.02698366805158272,0.0007540132949044886,0.045637940976284985,0.04178806899683078,0.10241255237843301,1.548
19,470,0.11307391630586308,-0.027928600706348696,0.44234560481930496,-0.19561067466946033,0.3139529070056702,-0.8602224617904283,-0.3151527210261237,-0.049745871179712714,0.15161446935135384,1.7868006351382786,0.04352646006559751,0.0027067192320304545,0.04565791522473813,0.047365165549375934,0.10865380151027722,1.584
19,471,0.09012624836681865,-0.07921396444787351,0.4235777853312438,-0.13839687703397072,0.03840950967398313,-0.7995168866253436,-0.24623526263010376,-0.033512347970474476,0.1704859372565547,0.8071526137396339,0.032432230508288855,0.018363433231224597,0.046366181576684144,0.03948141434029293,0.01580175816120538,1.644
19,472,0.08341021687783857,-0.04443982782742523,0.4389476500646341,-0.11516870249913551,0.0008157571791974922,-0.7882083673267654,-0.22220209416106398,0.00433324137972763,0.19142876913762824,0.6298271076428701,0.020308826965479254,0.002970549630709438,0.04734800972344598,0.002650086842261415,0.010000578341579454,1.672
19,473,0.08723807549688894,-0.05188239754403272,0.44983602858905875,-0.10534225951908051,0.3476934514507124,-0.769136450057691,-0.17984846177136743,0.03488419377250433,0.2257666153983812,1.87120702281356,0.010086997172164087,0.0007771767529242144,0.043704322712094304,0.0007165611817333285,0.10030895059781653,1.66
19,474,0.16392802352086816,-0.00897868368893251,0.562298481542624,-0.06231883366752501,0.35803429694733,-0.7980319710817604,-0.2530275864493747,0.020400344632528572,0.2370098545912751,1.8101870139392773,0.045021132751472716,0.0016817141317630449,0.05166451321854303,0.002762953358488272,0.1269206541867113,1.624
19,475,0.018867935569035064,-0.10750063369894905,0.4979033154186703,-0.18232086205506964,-0.23076432321459212,0.15658510736327108,1.0062677931418675,1.3200547875402362,1.6214119412012304,1.6209823451067773,0.0154668193006455,0.03337917486825087,0.05921506717316678,-0.0005570287197948917,0.07920773231798924,1.604
