Numéro enregistrement,Numéro battement,Amplitude 1,Amplitude 2,Amplitude 3,Amplitude 4,Amplitude 5,Centre 1,Centre 2,Centre 3,Centre 4,Centre 5,Ecart-type 1,Ecart-type 2,Ecart-type 3,Ecart-type 4,Ecart-type 5,Période interpics
196,5992,0.008018995591136844,-0.07286304886916384,0.8213389309448685,-0.5153459493046753,0.012185557121861408,-3.14157385788285,-2.5097939774812286,-1.8045992436454088,-1.281913754365466,-3.141563457149546,0.011609375076282137,0.03244636718439147,0.13321924306735702,0.0011505178196491153,0.012434523660541054,0.354
196,5993,0.02596410448748559,-0.06819492903567569,0.6355643531766132,-0.47519107662323323,0.0365212502371007,-1.1333077248519803,-0.49913145239863904,-0.04110494597608702,0.311223010436697,-1.1332665399011557,0.009965204102832899,0.0010333527978603476,0.0010086371904454985,0.0010750014538530852,0.009709908905388932,1.076
196,5994,0.011027070426644081,-0.10209099499691457,0.632683112967103,-0.5678029124351142,0.032948257544390194,-1.1956687350977993,-0.4220049152190313,-0.01172235929495246,0.3282251970391613,-1.1956608566756028,0.012063431765741246,0.0010277011109536818,0.0010085128971753779,0.0012111415220232282,0.014877214131830642,1.064
196,5995,0.0171518940977256,-0.08693429034278678,0.6684722930070561,-0.5843321045842509,0.017151894098211322,-1.0158762161457513,-0.44041012109272637,-0.017616405363797966,0.32296686383208373,-1.015876216145752,0.012071813365450669,0.0010257672673094345,0.0010086145711709895,0.0011693096399711658,0.012071813365471485,1.08
196,5996,0.014378555362725896,-0.08553028565518211,0.6266049057611703,-0.5671132531781888,0.014378555363003451,-1.003646600765345,-0.5047926745203148,-0.005938738042012431,0.3385077984295993,-1.0036466007653453,0.01173578026987569,0.0010359778764211227,0.0010056348294016906,0.001106012546321338,0.011735780269899977,1.062
196,5997,0.04588908049586746,-0.07780321894133913,0.6015675814163196,-0.5290608140072758,0.03660652939406503,-1.0471439042310184,-0.6043823294075507,-0.02991992838650956,0.3171511565951033,-1.0472173259896003,0.008878675787017355,0.0010787623483482214,0.0010044570152950285,0.0010474315378050372,0.01226952534464888,1.054
196,5998,-0.0829193962784843,0.585992214283027,-0.5521287930557719,0.18287451813423963,0.033573353489071485,-0.5085992924895938,-0.04188789976377279,0.2932152393265874,2.291981415660118,-1.0830257518164752,0.036425307230203166,0.0010045004282349381,0.0010374546933155917,0.06541071704570847,0.0065902527871950995,1.046
196,5999,0.019023124609756054,-0.10273298660713538,0.5848805433806354,-0.5839302543013974,-0.05986086781944325,-1.1617675352005128,-0.48605762493539223,-0.04742026288206466,0.2963765292378533,1.3870806325197234,0.008185291007188301,0.001040058561218137,0.001006090340166215,0.0010603519554574772,0.022101731583662167,1.052
196,6000,0.05951186386872565,-0.10072753379551533,0.6061375424824814,-0.5053354123085165,0.006825823861176448,-1.027359620911269,-0.4724198500294538,-0.023620995360520328,0.3188832785161408,-1.0274751436887308,0.020196855005480102,0.0010373153942641314,0.0010065966351756042,0.0010752394729991446,0.013715739546973594,1.068
196,6001,0.0880481501687739,-0.07519174484142221,0.6610235186649268,-0.49228750595968535,0.16029868913395054,-1.133722024852552,-0.4369884085242013,-0.03543149267829884,0.3070728274370992,2.303089316834936,0.024935604460065958,0.0010182488405255088,0.0010074715090746247,0.0010599514237836774,0.060142474453292245,1.06
196,6002,0.02178742429684886,-0.11175523372404583,0.6162942301619939,-0.6004069415492213,0.01854928071156368,-1.0589282717065853,-0.4588842106759029,-0.035298790291139734,0.30592258477094114,-1.0589326576483868,0.008022393477455743,0.001041414260718714,0.0010077446686598537,0.0011069843800424741,0.0079283604386315,1.068
196,6003,0.046450145213205174,-0.081605551873615,0.6714923150580024,-0.5579505925021357,-0.08396600272397839,-1.0470993892872922,-0.4437277269170743,-0.017749109437703414,0.31356743568888223,1.2483204518923992,0.017259211110728614,0.0010204748466584026,0.0010068927612680014,0.0010779858061392136,0.026760974244724157,1.068
196,6004,0.0429454355099191,-0.0871880157673699,0.6144289184714751,-0.5477625652185114,-0.032375328022426035,-1.0907734775936564,-0.4709407758476597,-0.029806380003413513,0.31594752034598106,1.4962977797542214,0.004861867002707972,0.0010239182364920876,0.0010051103694054256,0.0010569805070557705,0.012469564230889142,1.056
196,6005,0.029910126363154363,-0.08930296466082854,0.6163453604260349,-0.548757379683453,0.029910126362946196,-1.1342319830184895,-0.45728280504218954,-0.05344864220790263,0.2909980856398814,-1.1342319830184915,0.006592524300134652,0.0010237110345038816,0.0010062464341130109,0.001046959868292562,0.006592524300172816,1.052
196,6006,0.05899772087487002,-0.06809595073285674,0.6092650865580164,-0.5414055492552925,-0.031308844156583575,-1.0704862776343131,-0.564780500820759,-0.04706505368277683,0.29415645161696324,1.258920038026647,0.004072918887172412,0.0010637338915844554,0.0010079629376668888,0.0010689701801157017,0.0061207706408901155,1.064
196,6007,0.051064978408341,-0.0690653735375887,0.633340493689955,-0.503114092679867,0.16074725408377255,-1.1203693760731377,-0.48509892565809315,-0.06929982307829029,0.2540992336845534,1.9866247792765446,0.011937821836835128,0.0009746330812816498,0.001016212348682293,0.0010716738659534144,0.046527474421788104,1.072
196,6008,0.05408868831019276,-0.08445946665472279,0.641855889935727,-0.48766996281263914,0.17552630334667024,-1.024252231098202,-0.45206872615202737,-0.01716716831579819,0.3146953983291997,2.2374047977125544,0.01711585687759167,0.0010548467169771139,0.00101826995230797,0.009008381104061823,0.05048922127614796,1.104
196,6009,0.05925987055803573,-0.07388685697283354,0.67814005097827,-0.5850915869509926,0.15886768968202192,-1.0316402154231554,-0.455386878075861,-0.017293166697110965,0.31701462867366126,2.1384339425554506,0.007702786012361533,0.0009770492511014242,0.001015501664368811,0.01847638396414411,0.04197465212337329,1.092
196,6010,0.04362058749970913,-0.08999352154930976,0.6598296351694997,-0.5834270413682452,-0.0475653126801618,-1.0978727170123082,-0.44379367484598004,0.0,0.33861765142910527,1.2728433984181629,0.015655991237588755,0.0010320587502135317,0.0010099346710927262,0.0032838061305846536,0.0043527977502508045,1.088
196,6011,-0.08680109889817143,0.6076563510106299,-0.5743793765743834,0.15154833147777927,0.030797117607437554,-0.49110520306276356,-0.029581849313712327,0.31356741955196293,2.301482360147646,-1.1182132705996988,0.028313850414123494,0.0010063366593083814,0.001083020875771278,0.052869747207698076,0.011616292568052506,1.064
196,6012,0.06378837334428576,-0.08793115405010345,0.5916284579955748,-0.5606863886492426,-0.03427507324179913,-1.0352688437694313,-0.4521988922361949,-0.023799942796524365,0.309399145420937,1.3804141348068866,0.02222832997863075,0.0010211528295157582,0.0010051238047901747,0.0010582457977058026,0.011928510172426838,1.06
196,6013,0.029650420390937942,-0.08403685321799323,0.5795556061215582,-0.5542090841289429,-0.07020390765203968,-1.1147781817929334,-0.4351732017475364,-0.041728932122926554,0.30402498935158934,-0.6736667041882914,0.011573639825808125,0.0009875315843736457,0.0010049820843700532,0.0010493570016177336,0.011980027400233474,1.052
196,6014,0.05727984857243856,-0.10093900280075428,0.5821885324745845,-0.560055134614566,0.10717282929925485,-1.1221837236664014,-0.4454053266089705,-0.029693690340710982,0.3028755347173781,2.2745471150905887,0.0040971658510119266,0.0010245913742355497,0.0010054046958852805,0.0010570478253039686,0.013835422900971795,1.056
196,6015,0.04249083499390074,-0.083190930293635,0.5932859296655081,-0.5119143250735758,0.15590126851629213,-1.1102094339889697,-0.47241987395539176,-0.04724199067110474,0.2952623456214263,2.2198345380387483,0.011892089401787887,0.0010288944267540226,0.0010069171052635708,0.0010545073913157945,0.003671660124372461,1.06
196,6016,0.04803327615108743,-0.08726061389523303,0.6311921242595743,-0.5059125081164196,0.04803327615108743,-1.0352647110264126,-0.4706506308217183,-0.035298790193306395,0.3059227037095835,-1.035264711026414,0.004548711278907748,0.0009792033128290236,0.0010079510800235494,0.0010722941255887344,0.004548711278921626,1.068
196,6017,0.05396860996690161,-0.09087720713333815,0.6402078224608829,-0.5948521626472766,0.1267001366031033,-1.1217862453588427,-0.49604083223029416,-0.01181049762619666,0.33069348968750834,2.2558019950601738,0.004125231570919747,0.0010414436898549253,0.0010068744707842905,0.0011459043373480684,0.03368919173800777,1.068
196,6018,0.02924740604605219,-0.10297837716825736,0.6311105058205249,-0.6027112971954359,0.029247406045774634,-1.0392156154683319,-0.4335278559169073,-0.029693690152384267,0.31475294574550966,-1.039215615468333,0.00695898875412545,0.0010224766278505984,0.0010058936761027084,0.001078864118395472,0.006958988754160144,1.06
196,6019,-0.04730845317171979,-0.07965582719229862,0.637342389241682,-0.5588455955604537,0.015140357703358857,-2.9031439313750758,-0.47094086724750395,-0.0417289318442485,0.3040249876202749,-1.1505389973266733,0.012914282028407232,0.000984648088424688,0.0010055144942015528,0.0010500397368749517,0.011010187352094815,1.056
196,6020,0.05980159710349076,-0.06628979706114188,0.6186103276239117,-0.5021579117019208,0.059801597103976485,-1.0904106334645267,-0.4979128372848999,-0.07113039362422917,0.27266646245665427,-1.0904106334645234,0.004084301360913741,0.0009825749307895417,0.001007249410780008,0.0010349856575446173,0.0040843013609102715,1.048
196,6021,0.07095607189666389,-0.060969315386088976,0.6075273648282704,-0.5313870251084424,0.06860070732293602,-1.046904353185598,-0.48557209206054797,-0.05265238429375152,0.28666283252720554,-1.0469860458906524,0.004150393942841928,0.0009813568681977794,0.0010096083150394333,0.001075294885520938,0.008064819504307158,1.072
196,6022,0.06085695323481776,-0.07724632032762309,0.6212088153958605,-0.5231659385780376,0.06418224857508235,-1.0661644728781694,-0.5360879045882873,-0.07493705539918706,0.2709260094814459,-1.066145501293789,0.0039772829198047996,0.0011064784043540435,0.001017302569824823,0.0011148572654277591,0.003968290047195023,1.076
196,6023,0.06957926776217271,-0.05678209870610431,0.6583206540697131,-0.47445564708453736,-0.014631535577043513,-1.0774334239898355,-0.4618312802820331,-0.03991132719025993,0.29077844388064444,1.237260720172344,0.008039018804466653,0.0009771148252517006,0.0010224186871219945,0.0014224360856223963,0.01084126544997589,1.104
196,6024,0.0646289249382983,-0.0624851378919699,0.66370894536079,-0.49949395720776907,-0.010585932577387075,-1.0734639489111615,-0.4715227896573917,-0.05112897410573464,0.2783534897955048,1.1646122477402578,0.006313164658024574,0.0010518502329023563,0.0010266877749344197,0.0016971261693154707,0.010616237076370811,1.104
196,6025,0.021668295604379592,-0.10061462210266567,0.6593068187611109,-0.6826448700150985,0.021668295604032647,-1.0852906690449835,-0.41126290330168036,-0.011423969871452118,0.3311772997984544,-1.0852906690449826,0.0110707780025258,0.0010483345994999052,0.001019885953366633,0.07519450031218024,0.011070778002511923,1.108
196,6026,0.06379257135302119,-0.06876487395557643,0.6702761189962131,-0.5420745389377489,0.06639969842933068,-0.9815365293996607,-0.4850987358712836,-0.01154997061191216,0.3118341329375324,-0.98145996928933,0.007707764678479818,0.0010446981458790408,0.001014329237588151,0.001666381125995208,0.004147300240880654,1.092
196,6027,0.035939447773274895,-0.06081738028564111,0.6408580738523596,-0.5342810056763758,0.03593944777271978,-1.0781304543556331,-0.46370375641598993,-0.02318518162187927,0.3014067407593274,-1.078130454355633,0.011554590346876349,0.0009811908362457036,0.0010123395394804882,0.0011799776343583415,0.011554590346883288,1.084
196,6028,0.04277705802061388,-0.0756647150039625,0.6179499202232289,-0.5248195629532146,0.04277705802116899,-1.0432102497118296,-0.4637037645094594,-0.03477777260090381,0.2898144466357653,-1.0432102497118259,0.005190216588912532,0.0009774334036514723,0.0010121690501217464,0.0011246563608794937,0.005190216588829265,1.084
196,6029,-0.07211252685837549,-0.06315789473729233,-0.07017543859677561,-0.06315789473756989,-0.06513646358397013,-5.417032317489577e-05,0.0,0.0,0.0,-8.440629108000251e-05,0.007830516962137005,0.001,0.001,0.001,0.00936840705652693,1.084
