Numéro enregistrement,Numéro battement,Amplitude 1,Amplitude 2,Amplitude 3,Amplitude 4,Amplitude 5,Centre 1,Centre 2,Centre 3,Centre 4,Centre 5,Ecart-type 1,Ecart-type 2,Ecart-type 3,Ecart-type 4,Ecart-type 5,Période interpics
198,6064,0.10984568255287687,-0.19499813541893088,0.8919896800563405,-0.5098984531322349,-0.041986010944402144,-2.797676273744504,-1.6325636728618829,-1.1704721808236975,-0.8003053287730704,0.3900728255774852,0.015345528234140772,0.004175322370152512,0.09745663398658024,0.045057370004499435,0.007608281026101296,0.736
198,6065,0.4940384778742255,-0.04587937353929952,0.6649173323096603,-0.4026803046040592,-0.39893134993013807,-3.1419449817563208,-0.3784723245444078,0.004984896587102012,0.2984020453747717,0.2998860749532277,0.045698957346869136,0.0031772386482321587,0.05704397021262428,0.012326793235191808,0.018614394728517766,1.292
198,6066,0.03687844869416487,-0.10383332097141987,0.5950100212773477,-0.44883747723254963,-0.03849511580767055,-2.9446282523141614,-0.4031911575648954,-0.06912190048053152,0.21659036069175625,0.9454144366787661,0.011067296602361122,0.0034404254429927167,0.04180888172591785,0.02547087007080573,0.008835258200310904,1.264
198,6067,-0.4403757244970895,-0.0145232256285933,0.6378965083344404,-0.33675877126628023,0.46107310593635775,-3.1411263679783596,-0.545159147603303,-0.1848922900384402,0.09248612438790021,1.8201580557433978,0.04848007449210052,0.000884825762602736,0.03940780056883773,0.010181235043134701,0.03054539456447511,1.292
198,6068,-0.07990756531975965,0.6950820599969545,-0.3941012250979493,0.47764991269772566,0.4011048087763152,-0.31278621858605776,0.05918877807112019,0.321708955786303,2.0807352808568274,2.0809148311746286,0.009680292273124237,0.07042134479989706,0.03953271799314504,0.10912288945535879,0.00011440012691708248,1.424
198,6069,-0.04572554506040061,-0.04593543811068018,0.5894772010323004,-0.3802838342365821,-0.4139123763918272,-2.983814545709679,-0.46868709532333563,-0.04170838344432065,0.24594402408559177,0.24604824578590967,0.006842764569619759,0.0008452119262526426,0.07445802956788136,0.0008101593731217336,0.051836610469775495,1.348
198,6070,0.10189474718230083,-0.09277150320982577,0.5830334698924617,-0.4594296773778876,0.4477525473151472,-1.2540203243414918,-0.554217852768477,-0.1790349626260886,0.08292841921274585,1.8132552016584575,0.010633299647133344,0.0030227724841156906,0.07473658447029644,0.04945350882613796,0.10411029988946888,1.36
198,6071,-0.02992711089449211,-0.12181698254356776,0.545958841876838,-0.3819486100184548,0.4233006444723111,-2.905678383064023,-0.5150796622483934,-0.19247935293622617,0.04335623108807546,1.6710088342481946,0.010114707583709316,0.0006037860813050145,0.06497219206105012,0.03409779744424544,0.0761653239219171,1.516
198,6072,0.002078172967398034,-0.09248405088855331,0.5473512266331143,-0.38301214260403293,0.4589072188735524,-3.008223155338391,-0.34008760112358916,-0.05179628512762738,0.17776327375471163,1.7040719235848574,0.010003589626984511,0.0025715024582890684,0.05026664289307836,0.029881173523842564,0.08669637432253245,1.68
198,6073,0.016884249376906954,-0.08334278797321194,0.5803417848893202,-0.4183283472126325,0.47710569696810795,-2.939873250687002,-0.2801662802912272,0.04098272303612471,0.2651845756847149,1.6996615498938987,0.009966162555181636,0.0006913013104796207,0.055222168916089165,0.037696496873510454,0.11371240019839415,1.712
198,6074,0.03996385857828308,-0.08936776401398705,0.6137318743783993,-0.40610750937713064,-0.4383070450385453,-0.7281309121322113,-0.12215614247744966,0.23711254891533595,0.4738223789341107,0.4746680142128019,0.010094202502735862,0.002873981073777226,0.0775530316196861,0.019708497899977417,0.06329952000411598,1.656
198,6075,-0.06964600613673226,0.6362581545978562,-0.5923419795148944,0.5160258207930013,0.3804603283201569,-0.38937208433460485,-0.035161563505917384,0.23834976986545944,1.9291117424626654,1.9297144963679718,0.009734966582533961,0.09044834973768914,0.061637185188339265,-0.16826341516759422,-0.0037784049973957554,1.416
198,6076,0.05904421182992049,-0.09362614286471196,0.6957402215683546,-0.5066094613423446,0.5475395225263204,-1.1173064733209028,-0.4074873800310121,-0.056573460984448154,0.20545663576473766,2.0023496753531456,0.010393967400952287,0.0007758641769422825,0.0883388510348669,0.060901043694511006,0.15970993038615822,1.42
198,6077,0.1529954913336939,-0.03425137180586462,0.7494802577360988,-0.41607552959527905,0.6197660536914836,-1.0766451656442138,-0.3293789763967946,0.0046548848741901246,0.2676263785417351,1.9553299090040959,0.025491016062185713,0.0030059075306819124,0.08645917246887555,0.059839158422627305,0.17979619783608747,1.448
198,6078,-0.07296954861426197,0.8091663204861494,-0.4395395336783867,0.5411859034834612,0.4498720624467114,-0.23459503555981037,0.08760543837589108,0.3534375522883319,2.193993114706449,2.194070607058095,0.010194738595728182,0.08698093015896316,0.05971410858535398,-0.18844474430794572,-0.00010614805408219306,1.416
198,6079,0.2659938650081448,0.04413234726120027,0.7901238798286971,-0.5693811842293943,0.5729027093066457,-1.1827917498638325,-0.5299432179289094,-0.046741492142029106,0.2264929771677605,2.0912913995400166,0.08345409287721697,0.01058239056000204,0.10133945982253213,0.056838559692964696,0.2047772418968393,1.316
198,6080,0.13167656843064948,-0.14102807449586746,0.7617309117174853,-0.39604111986830753,-0.5403441383893239,-1.124649364621923,-0.4181151574116045,-0.06360066886957072,0.20421958622633732,0.20387889580430585,0.03395974815734905,0.031574913619362675,0.08566800366903339,6.429142586608041e-05,0.06235791870094462,1.34
198,6081,0.21795975494439582,-0.01243619356774622,0.7875599380071304,-0.39025348964008855,0.5868446499183495,-1.1557947140512983,-0.4152606994313548,-0.08111484887967313,0.18909193244447833,1.9769123111155626,0.041850262533779416,0.0016842706828658063,0.08561604440623134,0.06030673060662592,0.14871361276740486,1.364
198,6082,-0.11792662295602192,0.7066917010669057,-0.4880045887027224,0.6304271005682032,0.4479624852887991,-0.3829171639007569,-0.07793516429856978,0.17372218667202555,1.8884149627304876,1.8887176808224275,0.010276961178484435,0.08670754812516071,0.0545165374178707,0.17237857999679332,0.003241675218490214,1.42
198,6083,-0.17319863546379594,0.7531323833984679,-0.5919944112453159,0.4875191860756395,0.4136954433533941,-0.25178246051505426,0.08500350432365195,0.3306104010172055,2.125338489873233,2.1259876390271257,0.039785820305054,0.07314308948005555,0.06367188391580195,-0.18637082496898486,-0.003278444496507555,1.468
198,6084,0.10780123854916576,-0.12524102848006033,0.869366799756319,-0.7723753472751546,0.10486655028704181,-0.09520762929571745,1.0201057279534957,1.565356375090137,1.9577743106143872,-0.09519423648820362,0.02871283427948982,0.019343850182199467,0.11654133938921492,0.10255768659037351,0.026612976508095777,1.378
198,6085,-0.08524389234528734,-0.08580162542223196,0.34375395049255103,-0.05285656636798085,-0.016016604336886106,-3.141626112579015,-3.1415926535892744,-0.8850926671069488,0.7489245644780889,1.3325803876688376,0.005048153336861542,0.001,0.0010000081841616817,0.000999999899087666,0.014406284682602312,0.468
198,6086,-0.11099941224546234,-0.13183878463314302,0.5930188717347581,-0.5776319880378435,0.16934460920560263,-2.7341659208054283,0.17453292519943264,0.8532720787492474,1.4348145819039664,-3.1416196713709166,0.0053635236932050865,0.0009999999999722444,0.0010000089987739482,0.04337858398080386,0.0047982500201615465,0.824
198,6087,0.21334496060308103,0.3833293229900626,0.37360561441970935,-0.01851160174868564,-0.04598265078143033,-3.141618132303817,-1.2585585158399273,-0.8742658454890392,0.2593975585532857,2.1999908565261554,0.004626228996194585,0.0010064994156237508,0.001000011914011444,0.0009999999999722444,0.006369763601809771,0.472
198,6088,0.0695024925454841,-0.10056127006308119,0.6736381916731924,-0.4138282400816205,-0.6172732047221794,-1.3745609803660548,0.2552544031041708,0.9621127501392732,1.5315265354987158,1.5308651787847825,0.018736802338545057,0.001,0.0010000442020239855,0.0009284290305295865,0.12293811321447941,0.836
198,6089,-0.047835527205394704,-0.048776567710637056,0.3779011701063102,-0.07409776248942228,-0.11151616840179283,-3.141627046268663,-3.1415926535896395,-1.0219638750699047,0.8137860488208346,0.8137956533606756,0.005206430566219168,0.001,0.0010002497247963973,0.001000001485415957,0.015360489934970448,0.444
198,6090,0.1168733881697545,-0.10873715790191772,0.7640202455222783,-0.5190016851956646,0.5082110604941387,-2.038667297398918,-1.0692276605702775,-0.678409750032553,-0.35654874175894075,1.7935557333094196,0.040370225250028785,0.024803968432007516,0.09500457739876941,0.0706164521363889,0.187335636305429,0.884
198,6091,0.19057482209924578,-0.10321651950958977,0.7421174444977083,-0.514617587375442,0.568966435952769,-1.1843512802631408,-0.5227593750708073,-0.08450236878936283,0.16462824093016062,1.9618536057081677,0.04556816805206162,0.02375377743420417,0.08414988754362306,0.055079474230313376,0.1885516480300035,1.374
198,6092,0.1193884212264601,-0.11851175681720723,0.7492130296746219,-0.5087628488518329,0.49370743268233197,-1.0149838895859604,-0.33871117510415627,-0.020887226694816907,0.23193075622250003,2.025591737682953,0.031104245836737335,0.016761559725321194,0.07876028212787281,0.06296056226385335,0.17610265856265,1.432
198,6093,0.0896915707311503,-0.12167187970340755,0.8269806736876133,-0.7650217881855212,-0.13757866710485941,0.04030308687419558,1.1407141245046895,1.680066382121788,2.0669956731754575,0.765314041007898,0.025208844715425262,0.010961006160581753,0.1208763836454016,0.09661222396085523,0.03259614622019193,1.43
198,6094,-0.05242965728972688,-0.004862344564771517,0.37968804286355706,-0.030299542353042892,-0.06867273187224963,-3.141621914064003,-3.1415926535897714,-0.8920571732363854,0.814486984264099,2.3075220832239034,0.005989924474894265,0.001,0.001000011569092906,0.000999999773778181,0.007111337236295442,0.444
198,6095,0.13277753253232763,-0.10733048347117345,0.6162301014722223,-0.735551750552422,0.1278678539282407,-1.2883368442573064,0.3342119844244462,1.0408316083175388,1.5942570850219213,-1.288480886291133,0.003994737896147589,0.0009999999998959166,0.0010004096159383904,0.12894611256988767,0.019376179553915282,0.852
198,6096,0.04754785139123399,-0.02385476341577509,0.3983563438246023,-0.02720508876604924,-0.0015366464884745286,-3.1416201820442584,-3.141592653589786,-0.9480545876660954,0.7807508369865442,3.1230046967836658,0.00671815584226934,0.001,0.0010001472179878004,0.0010000006271788644,0.013044215571894292,0.464
198,6097,-0.06391138049052772,0.0,0.0,0.0,-0.055539947016597285,0.00011725175688259702,0.0,0.0,0.0,0.00013075379603169623,0.021267460561417678,0.001,0.001,0.001,0.019366322607964864,0.886
