Numéro enregistrement,Numéro battement,Amplitude 1,Amplitude 2,Amplitude 3,Amplitude 4,Amplitude 5,Centre 1,Centre 2,Centre 3,Centre 4,Centre 5,Ecart-type 1,Ecart-type 2,Ecart-type 3,Ecart-type 4,Ecart-type 5,Période interpics
21,496,0.04064851052672553,-0.2588927989459813,0.9906947597767833,-0.2184906796458355,0.506019738080532,-1.5226844599778149,-1.1965744961029505,-0.9025648778694727,-0.6564762240725931,1.3054017657081727,0.010634764072121076,0.008774955112921999,0.03268166650873625,0.005476342813069112,0.027387960293976325,0.452
21,497,0.13969481759267988,-0.22130201889403747,0.9074664542444004,-0.2534630807493024,0.5465913744671543,-0.8945849974318473,-0.2198579358704133,0.00848701467267778,0.20061414185777757,1.7506840747891104,0.011977473342108897,0.0072112165124446,0.030728702832312917,0.007628019202389977,0.02949545285160748,1.656
21,498,0.11434265278625055,-0.14263311057216535,0.9240351478706698,-0.29279466220478756,0.6049114975464306,-0.9004979162778061,-0.20635694092931572,0.028464856009257272,0.22216267702798664,1.7875241670354263,0.012539035731424881,0.004691574318858832,0.0302806593253939,0.008849224289754817,0.030165680733744992,1.632
21,499,-0.04118010654530146,-0.3227835583462219,0.9396608358955058,-0.30525607619215633,0.5551917556109268,-0.5919335429361174,-0.2393074495798923,0.0007570754338594171,0.18839184172534668,1.664866361100711,0.010185733505921361,0.009284289760330737,0.031186148314524896,0.008714800990114095,0.027781986179039948,1.598
21,500,0.12790067691651344,-0.18406675978290396,0.9643023301761594,-0.2323991201131083,-0.0015515941175397432,-0.8998322113074864,-0.21961976974603753,0.012886493787626789,0.21626622973705262,0.8936260569332649,0.01261481403231404,0.005583378802206794,0.03142669496204003,0.0078163758535755,0.00999969446797591,1.586
21,501,0.09538767624327937,-0.14679457297957935,0.8755783929593982,-0.22214823866740327,0.08894625549405633,1.143338321206996,1.4464928020388863,1.8241506225042625,2.140888482501991,1.1433593019000385,0.009632097913925162,0.0030349002370702667,0.004563507513277242,0.002309716528511101,0.009623263985248055,1.576
21,502,-0.115734546911514,0.013955419509945121,0.5793926892055916,0.030788423661574117,0.022017035691975467,-3.1407964329485547,-3.1415926535892345,-1.4748974500369134,-0.4324789886750505,2.097348306332235,0.011316097446301505,0.001,0.0037390752293331203,0.0010000000467333117,0.010771856216814047,0.412
21,503,0.10589069097293123,-0.1968201520046106,0.8080084671941522,-0.2439000217984291,-0.32213680852520277,-0.44404692296701703,0.8682793539548622,1.3536717626530756,1.7514203336360472,1.7485256161300036,0.011672509264448417,0.001000323512552164,0.01224205877128866,0.0013259861277557996,0.017695784177028114,1.128
21,504,-0.09440958946912048,0.2761447408989207,0.5123948143345295,-0.08414480165832176,-0.13318902689416373,-2.8511885882859476,-1.8130325229938764,-1.355424072960956,-0.28975854571409304,0.5055400118769351,0.008376765816030416,0.0033136750582741384,0.003525386829052569,0.001000000233743372,0.012317759041189742,0.464
21,505,0.07841946504966937,-0.1487361573087269,0.911679323639736,-0.19241403990455497,-0.20166297494996055,-0.3212081455759671,0.9588482940522163,1.422659839765994,1.8159453275102835,1.8116625531795578,0.01127871057243243,0.0010009523582235327,0.019779371101714918,0.0027894471764123457,0.010871340173487327,1.184
21,506,0.049202473262888194,-0.08420832938089681,0.5901583020947616,-0.05304923267180508,-0.10048434098323347,-3.141450502497379,-3.1415926535897887,-1.529502428088255,0.13528389417377157,0.1355864173950157,0.010194719321737376,0.001,0.009262650574662506,0.0009999999970781706,0.012522190217179483,0.428
21,507,0.14344340629058855,-0.1668846606072162,1.0116380374303873,-0.13826494760768762,0.5241614469183055,-1.516361506982552,-0.7469880605572417,-0.4774041471897659,-0.2464168631903984,1.49115700842956,0.014689367475066257,0.005779056947813247,0.033552291948513426,0.0028154687407963915,0.026872051711434308,1.244
21,508,0.15978353299969858,-0.24338030470723224,0.9894271976560937,-0.2345624917927221,0.5226257531064294,-0.8560397323556762,-0.20636232218299772,0.01639781222818753,0.2058727860731555,1.6385734053592105,0.012335258749758852,0.007726894815473238,0.033287454424961914,0.00562539177814217,0.028224846612923897,1.664
21,509,0.05699092305133242,-0.2903054576262468,0.7124557196990011,-0.26340142634715025,-0.03401013162034534,0.3399108431523001,1.452713111470862,1.8293644224103698,2.1450561599796725,2.6200591749009265,0.010360405299375151,0.004965869442123441,0.003922072100052062,0.0022593955931508873,0.010457495776807655,1.648
21,510,0.09778587141709169,0.14047743171167568,0.46691339865093945,-0.015046256230460074,-0.1157199513870138,-2.8309525193177287,-2.2564474875299823,-1.293185177988778,-0.3490658504000328,0.300120493713695,0.007416740095279878,0.00228191400049628,0.0042413700845870825,0.0009999999505052167,0.011240232940137969,0.424
21,511,0.09920817494163037,-0.1643945892728453,0.7765730612511594,-0.23744527971259802,-0.3453609804973312,-0.3814355496415693,0.95613670799726,1.42690939861497,1.819018795065598,1.8205405243429498,0.01228289037598927,0.0010019052405166725,0.01858704070135548,-0.00019826626882202324,0.019026419274640854,1.196
21,512,0.006459758065852374,0.16810159949558537,0.500352657064904,-0.06135289945347692,-0.05452461311777972,-2.831341050567857,-2.2407468277600406,-1.3709915237985641,-0.1628973968526153,0.9376013391869801,0.010342939283422723,0.0023655457287787007,0.0034944978228337604,0.0010000000133680567,0.010611358675755257,0.46
21,513,0.11971190815865199,-0.15785103729924124,0.6912794286900571,-0.35560850118547005,-0.14727013894453217,-0.4618393528598734,0.92121885778451,1.3939390747677025,1.7998970715676887,2.3706891810192015,0.011137851614209963,0.0010005160643339747,0.011643573232200433,0.0035835665774822125,0.015272241191298759,1.156
21,514,0.015557718471947207,-0.060915813992301254,0.3770024656174588,-0.08669889479418635,0.045677022268659405,-3.1414206537920766,-2.6540088282641654,-1.3187253430240857,-0.09424777960765575,2.0268329382750463,0.010277606638034618,0.0015531764118543031,0.0025451390230521852,0.0010000000038596904,0.01165914554243373,0.44
21,515,0.1855232478768048,-0.26130754645371057,0.8332669436586306,-0.2392361098485644,-0.3575362313047141,-0.3307761991545538,0.9992341778692613,1.4828875150973275,1.9104731781666187,1.912934244270895,0.013706559836606262,0.0010014713850866877,0.012875068643018784,0.000640193384391275,0.020662545676826502,1.164
21,516,0.1057447197647474,0.25376073226640183,0.47062604335414426,-0.007694411757417027,-0.09524598970802112,-3.1420852695899413,-2.2804678252960064,-1.1691467695788014,-0.19883497807529416,0.47105247065204114,0.009254664057188012,0.002467954878839704,0.0010231896093778883,0.001000000000950351,0.01204352849803021,0.408
21,517,0.17101984594477365,-0.13818797108300845,0.8509552370626727,-0.2606419640306941,-0.13448544554442243,-0.41415757435345235,0.9541132402991097,1.4393607870415404,1.8667068428077824,2.4589086719908715,0.012768995763472275,0.0010009420973366703,0.01161321724254891,0.0033187821559012994,0.0073675658072730075,1.172
21,518,0.03985741513922634,-0.06085698214905988,0.4411338620153329,-0.0754028180432239,-0.09842942940978863,-3.1419895267668037,-2.7611685962891377,-1.383031089182768,0.26113994349690156,1.8134215618426224,0.009356824317934163,0.0013988724636358465,0.0034721593658818962,0.0010000000303761877,0.012957719627041007,0.448
21,519,0.13924548223295044,-0.10825434894081845,0.8693873055776623,-0.2210809663329604,-0.05802953951551701,-0.540522556578816,0.8739768890888947,1.3493923654244289,1.7381461846515125,2.57602344462712,0.008943313759765285,0.001000202921387124,0.012973733196056344,0.003431957518385199,0.010317053451697087,1.14
21,520,0.03853235655493783,0.052921739868861076,0.5047590785597642,0.04325320412955397,-0.02866576694214553,-3.141972955864497,-2.967749372500016,-1.4144691047581206,-0.49853989211486177,2.2077783611865787,0.009386000077583638,0.0010862440838125117,0.003523770746357254,0.0010000005516624657,0.009811995634801908,0.456
21,521,0.1465945895732062,-0.13306838975500962,0.8234239435811853,-0.25843871374937233,-0.3746827831222146,-2.810928202441604,0.8325220423638862,1.301847331741898,1.6964993276299418,1.69985925454404,0.008519837446299512,0.0010001625873820993,0.01235252216283605,0.0007794860046090253,0.020008853795628702,1.132
21,522,-0.011707428646591316,0.17522222620282807,0.38596009034661993,-0.07063144142033544,0.06927930827781614,-2.813462284306721,-2.436663060345393,-1.281605176109689,-0.31259628393719957,2.4224455474627895,0.010986718891440412,0.0021111572332455793,0.001194447339449677,0.0010000001027584962,0.009325976217676264,0.468
21,523,0.14107122211337333,-0.18697244018737316,0.6844178321057651,-0.20531057143080958,-0.31157463234359023,-0.4853637911261014,0.8467264687745105,1.3035435600666874,1.7315503065423694,2.650438176911666,0.012293524748594629,0.0010002217295420187,0.00527931526945058,0.0035436458348912137,0.015215067049281451,1.128
21,524,-0.07773290165986817,0.21424868534966665,0.6096821320098516,0.03901990332977364,0.07614160360264191,-2.972524103411147,-2.710393755012715,-1.4171825999352392,-0.1766665795419839,-0.17801862410610117,0.008275387124774642,0.0015380212994553213,0.01064190869026301,0.0009999999841640564,0.010817889818685407,0.46
21,525,0.059830818245546175,-0.18041990045762088,0.8447141340709383,-0.22222578638036125,-0.09610090482535243,-0.47774328194193705,0.8443505222707186,1.3190241177704367,1.6947839624934953,2.3050477405224847,0.010726510117104971,0.0010005781932994192,0.015581281274540545,0.0033139861146507694,0.012541377004498281,1.188
21,526,-0.00457548774033976,-0.014575551134195931,0.5026109707743854,0.14664807854523895,-0.15449019621118834,-2.915577464058697,-2.825184172742327,-1.408583849854508,-0.881453975198206,1.1112203017361766,0.009834040906501846,0.0010039779533029388,0.008337944872451541,0.001000893510508776,0.010624335964190849,0.464
21,527,0.1276862742063344,-0.1754813946810489,0.8445218226851955,-0.19516752071525023,-0.2876783836471455,-2.4885580841048704,0.900842125031964,1.351854815602606,1.7319653550562828,1.7331359500531567,0.011675796632163336,0.0010011816912781626,0.02012614548908375,0.00039240599221991465,0.018659363144032957,1.204
21,528,-0.0906731203797504,0.04090310094536876,0.5526954368598224,-0.02832146643799513,-0.06157173741550748,-3.1410463202563594,-3.14159265358977,-1.4055829585059596,-0.3020762166879104,0.5893591985121751,0.010884110546133348,0.001,0.008021899318101117,0.0010000001350256018,0.011276471636282688,0.456
21,529,0.23096197186462716,-0.10856333174527061,0.916802574187518,-0.18548132754530758,0.6044050293265879,-1.5352977820726486,-0.8079880222287669,-0.5243599599701353,-0.297753864751229,1.3955354113904699,0.015933614233572292,0.004168545851015192,0.030187086890321117,0.004358131315926433,0.029603355587667572,1.208
21,530,0.023496597529503963,-0.2497834564099408,1.0284283631129993,-0.25553092935383,0.5335904830902616,-0.3902781942880754,-0.23972709203814294,-0.010999474775065778,0.18536636196341977,1.7628175626730511,0.010148175474567226,0.007972580768207886,0.033695639640298536,0.008861083819373583,0.02840130677744205,1.656
21,531,0.175118263242062,-0.18309290853318122,0.9442000021432401,-0.24708238807022415,0.5263065526635194,-0.878706890133252,-0.20918163666692324,0.019423488064300665,0.21696442055898074,1.8189773330235555,0.014692766203513547,0.006424282094151591,0.03226410973175389,0.008249996183530627,0.02649494579578741,1.66
21,532,0.07130247877351212,-0.20386573342030098,0.9125420233044069,-0.23221979868685352,0.06942110312201827,0.9480398641292657,1.3859875770257664,1.7519281181063564,2.063624172910703,2.702647787467434,0.010138151489871667,0.004304607881824454,0.015313933714650101,0.0018207860722539429,0.011413823543312161,1.648
21,533,-0.008623126805724326,0.07751901508964554,0.5390104401780402,0.020676624374763787,0.07930458961804598,-3.1415098214422024,-2.8940199770075092,-1.3959476342614345,-0.023156702606308283,0.5468849536311858,0.01011887205392535,0.0011838812977725951,0.008995191637535887,0.0010000000009740126,0.009736725505999728,0.472
21,534,0.021651897243597,-0.10268089864443038,0.07628078315433127,-0.012618296528765364,0.20532664299327522,-6.938893903907228e-16,4.163336342344337e-16,4.163336342344337e-16,4.163336342344337e-16,-2.7755575615628914e-16,0.0115254756860612,0.001,0.001,0.001,0.013219365130811107,1.156
