Numéro enregistrement,Numéro battement,Amplitude 1,Amplitude 2,Amplitude 3,Amplitude 4,Amplitude 5,Centre 1,Centre 2,Centre 3,Centre 4,Centre 5,Ecart-type 1,Ecart-type 2,Ecart-type 3,Ecart-type 4,Ecart-type 5,Période interpics
22,535,0.12677039813708404,-0.12407641218946,0.6822340353509792,-0.20106059163849996,0.11706131772147274,-0.36851913763714556,0.1907037074064063,0.8130000157837936,1.3148518630786914,2.4584364971522166,0.009742564721211084,0.001,0.001000000109871695,0.0010002268098526354,0.007671720762947978,0.448
22,536,-0.04347937912251135,0.11702454969866291,0.47270181348722884,-0.06514835912008536,-0.07133003206574891,-3.1420429980894036,-2.720249185282156,-1.5631152157551678,0.3328302294496598,1.5164185927947422,0.009239936328420224,0.0010068513043387942,0.004953768923744183,0.0010000000264815947,0.010074071618965076,0.468
22,537,-0.1608265820485209,-0.2588196853997616,0.628312308251447,-0.24576440155218807,-0.3174539628543721,-0.04515830399081783,0.7583154672346955,1.2749637658005835,1.7083240073000723,1.711891620644653,0.011509990929462989,0.001000021160543734,0.001045970968069048,0.000822651072033809,0.018596917632708328,1.08
22,538,0.05281636956498497,-0.06170753021241174,0.45087172766806544,0.10363290832890103,0.17632915458998266,-3.1412842563816468,-3.141592653589786,-1.2665011109456124,-0.26317006522209013,1.361493868166676,0.010467986177025391,0.001,0.0010356439232500339,0.0010000000077503282,0.010986599364668876,0.428
22,539,0.08775490394653558,-0.2562782138808862,0.9875207229212142,-0.1849373067802834,0.5426926346669699,-2.625744532277295,-0.8249548570482681,-0.5518704276132482,-0.31876159559168576,1.5744219916981046,0.011044815079655932,0.008796341231535176,0.030860447385804297,0.0013462851314307847,0.02769963855495064,1.1
22,540,0.2072034621642214,-0.20583853567163604,1.0034795229141835,-0.2651065311670663,0.5600551247390275,-0.9456475440733538,-0.25468587859505437,-0.04218143138556674,0.15171942178175288,1.6547962047897367,0.015398298074252052,0.005975195184288588,0.032642762814042124,0.007384368548104054,0.02840721065954719,1.58
22,541,0.023824509618204107,-0.3012988190333045,0.6731758259225412,-0.2610687771653691,-0.3577632724034085,0.3794816517246995,1.3670901987347377,1.7300504518489932,2.043258517951611,2.0400576484140194,0.010504679293659473,0.007786171430992499,0.010368769724947938,-0.00025564092083113526,0.01797393821586453,1.616
22,542,0.004339458478569572,0.09614237744023993,0.5148771665465394,-0.04814724869566051,-0.09691329421813509,-2.971785150524075,-2.6779859759795124,-1.3489306786810764,-0.10034571129396191,1.320089189856842,0.010137597764216131,0.001575407965259997,0.0036569657736497843,0.001000000005249759,0.009176398256600339,0.448
22,543,0.15627610168614206,-0.15366374005009661,0.7332714048426778,-0.24895798023442844,-0.3881973258009588,-0.3880364511015265,0.9065291830715774,1.37146831935577,1.7816868693815544,1.7843529608040494,0.01131460096027835,0.0010005104444798787,0.011886453141444603,0.0006943825327207301,0.021655136074619608,1.18
22,544,-0.0840558727041901,0.07848048343178263,0.47510041833625455,-0.03206212902439058,-0.013613030719323238,-3.1411355807470778,-3.1415926535897887,-1.3557219676179586,-0.3315248528905729,1.1839043754352887,0.010731395783349527,0.001,0.003752750926387634,0.0010000000410956686,0.00984753554061804,0.448
22,545,0.26182651178258864,-0.0873039421860259,0.7825349192757256,-0.2398940152913525,0.04801903712954031,-0.4078955809182693,0.9043978709081147,1.395130567031789,1.8059205181333366,2.190120342374728,0.012697793214076448,0.0010001931442721731,0.01576665957547895,0.0035317082601246702,0.01188712508022753,1.144
22,546,-0.04761092744418747,0.11367126049435634,0.48136522020492284,-0.052567550910772684,-0.12532132309171576,-2.6939272369244387,-2.274200323494298,-1.3911478842433054,-0.24761321407522746,1.4410014456508475,0.010261342638076985,0.00208465502337052,0.003950792588305327,0.001000000044469775,0.0135330668355529,0.44
22,547,0.1433306816306745,-0.15045731338293478,0.80932298721116,-0.14971609701596691,-0.21076980192116204,-0.36715244409852305,0.9701975932573693,1.413688826563412,1.8170753906001234,1.818140675031565,0.012914360727921776,0.0010014558465835646,0.01932052499692724,0.0006928006170357564,0.017378462329963665,1.184
22,548,-0.046012950712262905,0.11888753826566983,0.43082320284476056,-0.02820643213421125,0.008154688247623623,-3.1421215753052967,-2.4289721562664583,-1.3985455274836343,-0.4769164750762257,2.7025089111561087,0.0090954717688919,0.002005184535913915,0.006619141161734813,0.0010000012490893042,0.009822998863388997,0.448
22,549,0.05313068942920061,-0.3849194818689873,0.8343719006724801,-0.2608070380262888,0.557296233123201,-0.967596677936133,-0.7486950770553034,-0.484856085047801,-0.2780575570160394,1.5466969912589452,0.011068877742655926,0.014171065265059977,0.026908154806758115,0.0048125163933295445,0.02838714492868808,1.214
22,550,0.1654227636281828,-0.21835123575746426,0.9576688133492262,-0.1976713269509957,0.5695597159040436,-0.870820688328198,-0.23067647485650805,0.009373082762232414,0.20118590339914494,1.6570129605165627,0.014771155367565387,0.006846613702195392,0.03234822544590506,0.005387702948416792,0.03031036150995732,1.654
22,551,0.08072825178407778,-0.2631246736783679,0.7290752105299624,-0.2218105631280018,-0.3564793455857137,0.30611781350870754,1.357280700938889,1.7158293939618035,2.0156651971274746,2.015621309835986,0.0123001071925512,0.006549666525463908,0.013543354074934887,0.00018446085225856673,0.020773963172527582,1.632
22,552,-0.020398396225585754,0.11185501876551485,0.4745318084165399,-0.002427184215082872,-0.07958989862653575,-3.1418011619204487,-2.7785128124062917,-1.3908433812746361,-0.2913256345433808,0.49479249611334447,0.009675896206166974,0.0013828816160166698,0.005773729594090173,0.0010000000019013957,0.009311513509039247,0.468
22,553,0.23649658298903642,-0.15341625074041362,0.6973971962186344,-0.27900518633985055,0.06671455732519105,-0.47807935781180316,0.7992464876359724,1.2710474927027557,1.6982569330414492,2.38162090532958,0.012024379778565143,0.0010001017250728097,0.004853174222693548,0.0038450206551962794,0.00880449038869263,1.128
22,554,-0.08649011724463276,0.17168745727688894,0.41876603925420675,-0.005917281091084066,-0.015847206589241686,-3.142414936947572,-2.6953569814783656,-1.318930429368071,-0.26379785640827835,1.5428190391783196,0.0085410620292774,0.001547671300756905,0.0012646927389574755,0.0010000000016014967,0.009961084794526355,0.46
22,555,0.12478848778766607,-0.15917150351953213,0.7695199181708677,-0.2190112123137177,-0.2814077659686093,-0.6320845875423289,0.8952725075733279,1.3634162234528782,1.790588992119289,1.7934797439828072,0.011391147119867396,0.001000160483870429,0.008479746150136726,0.0007604457866382752,0.01783548699393754,1.112
22,556,-0.01947888180904748,0.11849983406784825,0.3996877744775,0.0046529472318024975,-0.12271202627061553,-2.7608805325315786,-2.3467833950262933,-1.1582618007386294,-0.269732702580972,0.5701739373004383,0.01084192867415605,0.0022473526098670156,0.0010176257107779854,0.000999999998084102,0.009331416107481129,0.432
22,557,0.21565192435726824,-0.15460630848484588,1.1050070604346542,-0.16102743304809244,0.5757723140039109,-1.6636297285104211,-0.8174649138467699,-0.5219162387018872,-0.28713351961242223,1.491852969204353,0.017208737230118766,0.005101418148628126,0.03530221897256007,0.0014814584335058325,0.02960338597968939,1.152
22,558,0.05725553702337778,-0.3708973674345491,0.7287871154392744,-0.22081801968273426,-0.3392818951954491,0.33348840356456727,1.4139149656855348,1.759067615029977,2.080788998083656,2.081881946297538,0.011217963409907257,0.008384582433469111,0.007222699898112539,8.102957026839845e-05,0.020892278182332406,1.604
22,559,-0.059948804376452856,0.25952840344026296,0.5233750957683599,0.14127795939953988,-0.13659427362245077,-2.547976805137106,-1.8736141919523595,-1.294278513212426,-0.718971450395843,0.9345375472551318,0.012264172896896157,0.003212471439555457,0.004743946399521821,0.0010000495119592548,0.011033034386907182,0.436
22,560,0.12627862562967204,-0.2187867881283874,0.8828593903717998,-0.37818034757245106,-0.14880683981663584,-0.6255025901586964,0.9065291657850237,1.379688892741916,1.7784878598901621,2.4665627223200075,0.013214488367467121,0.0010007286256831912,0.015334901717713198,0.0036235802289717057,0.011972765600168243,1.172
22,561,0.08598537965013968,-0.11680210189536824,0.4749059353401556,0.0344625853467067,-0.07416697066367844,-3.141241120493347,-3.14159265358979,-1.3045500685542701,-0.27696660673935974,2.412773515792845,0.01050812138569497,0.001,0.0031129947849899537,0.00100000001764075,0.008689230466754861,0.436
22,562,-0.08486859010885986,-0.15703582203230435,0.7441716226317565,-0.23801995005212928,-0.320109891933153,-2.8935537055333667,0.8300010038619782,1.2959758758839564,1.683312551556099,1.6858710080659682,0.013209802603924318,0.0010002588658941372,0.008914121613139345,0.0007821066450298059,0.01849760700303045,1.152
22,563,-0.0025663908021195713,-0.08397392345693422,0.45463303702293095,0.37981810675229005,0.5316901932361908,-3.1418902799916895,-3.141592653589788,-1.697993819021448,-1.2740510334702047,-1.2787602711319843,0.009533839876181517,0.001,0.004018632313764305,0.0009650278845507446,0.023192240117002376,0.468
22,564,0.31835296128108875,-0.12447328272738144,0.7186650611848081,-0.2032620095013082,-0.26146297830582516,-0.564525288896907,0.8757892472387554,1.3377959797231598,1.7596552840189774,1.7623687600253408,0.012855791043655347,0.0010001395803819054,0.006713379092123307,0.0007737089448101528,0.017261569298388228,1.12
22,565,-0.04895885238102251,-0.09869705725648599,0.5225076695778883,-0.053488314473719295,-0.10293792785695516,-2.955825159135239,-2.800310020899701,-1.4199104578461736,0.20118573643715415,1.2679331145279968,0.008856443887790442,0.0013250112759987933,0.007062957353213215,0.0009999999771789494,0.00865063299945931,0.444
22,566,0.12053899794506696,-0.17907347507422186,0.9630368004405615,-0.21733312459644116,-0.16983779466558613,-0.3838284457163868,0.8997764496853096,1.3687864498128268,1.753867055556943,1.7535614650218037,0.012663734981541606,0.0010010038609330604,0.020467601261116596,0.0026629658759996827,0.016037880337907193,1.18
22,567,0.4856094148439811,0.5569476279822165,-0.05071435438405775,-0.038108827531756276,0.037342821947156206,-1.6124315527155448,-1.3790644153427791,-0.16534698176707602,0.22547315695455122,0.6760589368353701,0.026183623901386982,0.00851825584451287,0.0010000000440712744,0.0010000000764008995,0.009776111517196982,0.468
22,568,0.0977183144199558,-0.1955945814122894,0.8302880748271121,-0.24143282759637996,-0.39797475295122176,-0.4547671153254745,0.8540971825945808,1.3113860122370307,1.6709938990610447,1.673074659013393,0.012353481593514485,0.001001246847055325,0.019600584417914603,0.0007359311844767698,0.02205705970317666,1.204
22,569,-0.05019511180041973,0.007447768697209459,0.4578286149038831,-0.05528979068222409,0.018263619963322042,-3.141537916901032,-3.1415926535897425,-1.6919764705184737,-0.24861524596441387,1.529652755824285,0.01014107146603947,0.001,0.00393567849858245,0.0010000001388836962,0.010640043508044926,0.488
22,570,-0.015349022624271277,-0.143955320141702,0.8588181661667218,-0.16339623481214305,0.04466665981717534,-1.7405001513673313,0.9239977665992849,1.4008026843591543,1.7850414454762342,2.079467321685863,0.010702157606311364,0.001000835256793244,0.02062010704187838,0.002959503036535503,0.011641214593874792,1.18
22,571,-0.10325943423945326,-0.07825540538983397,0.48433758781410374,-0.053755297949690514,-0.018178609658733268,-3.142585693186944,-2.7160123367108073,-1.4231943897176234,-0.333889074285844,1.1081468035123403,0.00830119824480796,0.0014799281488818141,0.007648179447296096,0.0010000003297887658,0.010320173760796315,0.452
22,572,-0.13729050441909876,-0.13722943101386428,0.7270390054202706,-0.16483995890435332,-0.14201365810864197,-1.607538923497433,1.0114393454324233,1.4714158085165325,1.8543667699013704,1.8552186828867638,0.006856083885279309,0.0010023133991777086,0.01635729386307644,0.0006929228870653458,0.013385408003347239,1.204
22,573,0.5319685173143326,0.4050182560132581,-0.06871128970204281,0.008643485355655688,0.16098824447724425,-1.4326620814238316,-1.154204482805523,-0.1605193326647391,0.43569533151458695,2.3917456273751476,0.026081275119488177,0.0010415705960798985,0.0010000000274049533,0.0010000001603420869,0.007138686874544187,0.436
22,574,0.18766605189126573,-0.17784705831343034,0.8221472270572366,-0.25120359400074943,-0.3943049681022419,-0.404330709898864,0.9765429803423982,1.4420490221123548,1.8221031343386964,1.8237475698398784,0.01317880102688,0.0010027130075939963,0.01791648526467879,1.6799787635783485e-05,0.022772831588989455,1.208
22,575,-0.10241176456161644,0.06037212501428216,0.5358277648767229,-0.05978942318165523,-0.04462836204123383,-3.1408150384636166,-3.141592653589784,-1.3798185608833757,0.007643777745954445,0.8480575371022845,0.011188875707699745,0.001,0.008203648515457624,0.0010000000042568727,0.009693254954055456,0.452
22,576,-0.12766629017041836,-0.13331751228212962,0.792541115167273,-0.1982529544355134,-0.14691268201595734,-1.1153444991365342,0.9755066259490017,1.4361395717429553,1.8358966530478238,1.8383372221479777,0.013615991953470309,0.0010014426472925294,0.018725770338640393,0.0029070744998855483,0.009191712136996334,1.192
22,577,-0.06809852510710289,0.37841487038276844,0.5033172942571477,-0.011435033439063845,-0.10438291269575778,-3.1422893795132243,-1.8327888639906795,-1.3104550304920932,-0.376376625978038,0.005907102414248511,0.008856772772206393,0.003431038630186401,0.005772637880090336,0.0010000000798041494,0.011188503629379854,0.444
22,578,0.1682934097282,-0.16563596058437136,0.8787822880439446,-0.23257816860460281,-0.12766441002107504,-0.4999168154980964,0.9096094664678663,1.3647401100312206,1.7485067454620946,1.747372873368859,0.013317597505803939,0.0010009762543105169,0.01887440543978827,0.0036465564871532383,0.010483144462431577,1.192
22,579,-0.03418803419086225,-0.051282051282407926,-0.03418803418683769,-0.05128205128199159,-0.03418803419086225,-1.5043258860814035e-08,0.0,0.0,0.0,-1.50432584444804e-08,0.01000000000030042,0.001,0.001,0.001,0.010000000000298477,0.452
