Numéro enregistrement,Numéro battement,Amplitude 1,Amplitude 2,Amplitude 3,Amplitude 4,Amplitude 5,Centre 1,Centre 2,Centre 3,Centre 4,Centre 5,Ecart-type 1,Ecart-type 2,Ecart-type 3,Ecart-type 4,Ecart-type 5,Période interpics
226,6859,0.07729178893919783,-0.09010526172921181,0.5654642292726374,-0.027619851579618472,-0.0322369313092702,-2.4802446657871986,-0.8267349088394194,0.3179749649382382,1.0811148807900102,1.0812235251105018,0.03048470028006079,0.001,0.001,0.0009999999999548972,0.018415181637525646,19.332
226,6860,-0.12645975815943547,0.24668166348294449,0.452902846377968,-0.06282796879257069,0.04977242881674592,-3.1414757101138435,-1.9719752857770776,-0.9613075312148762,0.564892054430972,1.2782872195776376,0.016014761481844948,0.07000961994843127,0.0010000204562165818,0.0010000000011587953,0.007112015683940736,0.448
226,6861,-0.14892101244853204,-0.049320071973652055,0.6414815423416769,-0.1085522122439725,-0.13705615079976063,-0.27641066132556735,0.197584443621999,0.889129996295627,1.5016417076431285,1.5010495871315688,0.0509629030837557,0.001,0.0010000087700333107,0.0010269528533311525,0.006985369338686041,0.82
226,6862,-0.019251846584076145,-0.1302569220553512,0.4506511235202934,-0.09500530285039317,-0.17221067516803013,-3.1416108357975854,-2.5704833244610654,-0.8567979964333571,0.4079990459207523,1.9584613221120089,0.00784358317156393,0.038926896293269404,0.0010000008399392293,0.001,0.057459317791279156,0.448
226,6863,0.05968652726637068,-0.16724054482301193,0.5608732650354177,-0.1464992148787226,-0.24716799956076238,-1.4481395751943458,0.10199976148018841,0.8771979487291689,1.4891965172535826,1.4887241689364696,0.008297210474867934,0.001,0.0010000015703480183,0.000999868530130287,0.06501091125801474,0.784
226,6864,-0.10538604342500338,0.13959277659578886,0.49430679707565006,0.03076248909003048,0.029471711029205365,-2.9362304561829506,-2.4639143037450824,-0.7597315567504559,0.8623979833383826,0.8625260415331353,0.033730377878658506,0.047869634582384676,0.001000000091759933,0.0009999999665059591,0.01723564228099352,0.452
226,6865,0.12262547283432051,-0.10526403560273308,0.5635689270146276,-0.029399973025340427,-0.02353045514805214,-1.606279446552376,0.21213326599802407,0.8990409844665881,1.626355084012739,1.6264334379192613,0.03912685362405079,0.001,0.0010000036793797176,0.0009814899514782862,0.017047528881778233,0.772
226,6866,0.04948870447101368,0.03699125520210532,0.4132554172437374,-0.05249450772614227,-0.14603054057910017,-3.1416204082798407,-2.7589700042085497,-0.8659518211813042,0.6847060911670051,2.3562571581920375,0.00612309122100362,0.0058773284652137315,0.0010000016312853846,0.0010000000053047844,0.044414989117784215,0.472
226,6867,-0.21155181331181558,-0.16451490121610876,0.7158468579447043,-0.10619578518600423,-0.15482205119518763,-2.7559055655906044,-1.2007630977825976,-0.7270049333878082,-0.16796634012343423,-0.16793964239987125,0.06353197363556015,0.04760831293598972,0.09084551219058323,0.0009998409049260795,0.05371707995321987,0.776
226,6868,0.13728398410726217,-0.11922747128724628,0.7732168818347541,-0.0844361320510437,0.5169157389812105,-0.9826697476570186,-0.3211317606592127,0.03626086311013703,0.7581048352692403,2.367793454101895,0.04621069262300942,0.006895767191059503,0.08204083157513267,0.0035574598404506863,0.1772647256149051,1.244
226,6869,0.07606838780070242,-0.07863543693875376,0.7398977718216225,-0.0646580935793589,-0.07575351930706462,-2.827244124174971,0.9424777711679952,1.4370775895570598,1.974755299808764,1.9746534843158468,0.013340734249438239,0.0010118930826506492,0.12626625455286716,-0.00017297712307756804,0.03325455205613031,1.224
226,6870,-0.030288883176652397,0.14572945120232883,0.4542562714087471,-0.05934062039165729,-0.08028411374770339,-2.853218186483169,-2.358656108585636,-0.8343246063631155,0.4429130626372495,1.020118776574743,0.019380539507553002,0.03248489358308775,0.0010000003423025752,0.001,0.01806642367305597,0.456
226,6871,-0.09508527703871487,-0.12410849539166274,0.5754691863928587,-0.042655499475727915,0.4941061228141055,-1.6193509486308004,-1.1159542538139642,-0.7160261104754342,-0.22578181271697245,2.1354229323940044,0.021534267869258543,0.027234439683709553,0.08149336244068606,0.001000153206117931,0.181009938972389,0.764
226,6872,0.22277130808188805,-0.07764411723875381,0.7113035201473771,-0.03415911081476483,0.02576159244778542,-0.3664657688446953,0.958848386237721,1.474284980938243,1.9878563937162985,1.9878584144104359,0.05942437789688677,0.0009953198192813309,0.11644929859567957,0.0004264562126512764,0.008340830396788977,1.184
226,6873,-0.02629083970638248,-0.0718319904058477,0.43022355037124216,-0.04016126862507944,-0.10638658950816662,-3.141545574627867,-2.547245509372287,-0.6792632764518474,0.8278521181756888,0.8278866909702761,0.014173218062820915,0.02088657817339825,0.0010000000023037128,0.000999999997522815,0.03244952474608416,0.428
226,6874,0.07328995501608039,-0.11564036052011792,0.8354534747370118,-0.05661246638872962,0.5434466711204753,-2.2773954010890334,-1.1030317008745665,-0.6900511216957412,-0.3031927195975341,2.174144584404844,0.024995259452879597,0.0314707048837359,0.1089613577194584,0.001000442109269333,0.1950722552837641,0.756
226,6875,-0.11623287853440131,-0.09054621765637016,0.8277950502949807,-0.1529733350474845,0.49662341431085855,-2.6092272638169507,-0.38621616369255574,-0.04176415509025726,0.43833157311886917,2.2753780454128467,0.03708650769279318,0.001143722472954049,0.09478425388854515,0.024340592330771398,0.17775142947857822,1.192
226,6876,0.1808002858208372,-0.06646106728450292,0.7630713984549262,-0.04562068712172354,0.1473754545409484,-1.2735255396255936,-0.3757352886249279,-0.02089930610372115,0.3131153463443873,1.2836073472433391,0.06482279754564022,0.0014185279458314428,0.09865997939928386,0.0010611260723600016,0.03684755140881792,1.216
226,6877,0.11481614135300335,-0.12410342513128725,0.8257123568126453,-0.05298257853773619,-0.139438813929469,-0.2983574212900654,1.0367255363718786,1.5254986507795574,1.9792395023398504,1.9790529518461817,0.03423152782207381,0.0010186799402092375,0.11273896380797802,0.0005186865769589189,0.03534252326221248,1.192
226,6878,-0.045803197543268455,0.06273446985174819,0.40329217891504937,-0.05524506040360385,-0.07508006009212115,-2.826551097093226,-2.3219936931207696,-0.9141088992048937,0.745996917742058,1.3134560780194908,0.011788694548362328,0.01778905609581865,0.0010000006339026526,0.0010000000023314684,0.027998183168017172,0.408
226,6879,0.14663055800710176,-0.25780735931889814,0.8123746786975667,-0.07851274239253923,0.4221497000246489,-2.2640657304183933,-1.0680971776867494,-0.6610089271887485,-0.22894197423202234,2.111103881706158,0.057039683050840374,0.061762015877336617,0.1052660612414967,0.0010004379795415233,0.15497178476652318,0.788
226,6880,-0.04917805251328848,-0.027205288280338486,0.8778835175833131,0.005144563750296619,0.4827291993098053,-0.7699170062932419,-0.34328648194734473,-0.02040840393044925,0.5201312861562155,2.319756128111097,0.017242344532872003,0.0010406233097265119,0.08615566431438472,0.0009847674863884262,0.178086169206688,1.188
226,6881,0.23874957334990668,-0.03929963024847647,0.7348103843248761,-0.006804590440980665,0.07304353337126919,-0.3338174381026151,0.9713136594043427,1.4422862868760147,1.9729819842564955,2.1703707684804665,0.08738002957222682,0.0010055258924276658,0.1412314726962667,0.0006446935997453813,0.02864799282099218,1.228
226,6882,0.04561278039279924,0.24295801024365207,0.46977187575713997,-0.02962662950219812,0.08936078503972714,-2.8285379619368984,-1.617686237635617,-0.8036632369648125,0.615793908843182,1.3047620273253906,0.02122522254219658,0.017148809860734575,0.0010000000984490267,0.001000000000138778,0.033789198029602896,0.428
226,6883,0.17438428320395247,-0.06726193402874715,0.5753460851007928,-0.043179612620957944,0.0553648842060808,-1.2960768031963057,0.342153655341463,0.9020414549907778,1.4204560827611716,1.7314462516177147,0.06284644756101139,0.001,0.0010000012834178165,0.0010010683146763058,0.024929534213087277,0.776
226,6884,-0.09209128494302618,0.06206552786051689,0.45325525568177527,-0.0850200420591472,0.033757020916479676,-2.954772315165465,-2.560923455330974,-0.7568853587856517,0.7983585291300759,1.3995928783820126,0.013707719221486525,0.008206684758113994,0.0010000000483016405,0.001000000022037927,0.004978149942675957,0.436
226,6885,0.21840327018039926,-0.05324467534389852,0.6714221059559247,-0.07751974044969713,-0.1161192703381087,-1.7428711660584488,0.14187837790405478,0.7904652483224965,1.5809303667962424,1.9052806795187125,0.07506371532272535,0.001,0.0010000004414454913,0.0010485591810754638,0.024344595920711545,0.776
226,6886,-0.11564528572313773,0.21436279618134776,0.4161301297131095,-0.019705199326061743,-0.05131839449152852,-3.141601172368804,-2.25890094480626,-1.1032348783367607,0.346730961767435,0.34695273833740886,0.014643226482879646,0.05761111411599256,0.001000027939588143,0.001,0.017363745871118143,0.464
226,6887,-0.06297200007650483,-0.06781406694391483,0.659923255674898,-0.05236277653153153,-0.025532681425214414,-0.7184846878330902,0.13938806995449526,0.7827176235906275,1.5118244534976457,1.5120557818793887,0.019114111438310988,0.001,0.0010000000219026186,0.0009984235209936345,0.012911807701608225,0.732
226,6888,-0.010020602578617595,0.05917612913377596,0.4464754928558915,-0.04342093057829141,0.12114816120689428,-3.141603767531526,-2.44133680985209,-0.8066251407865606,1.0188949146776405,1.974149032351824,0.00870886042704906,0.009635560830652656,0.0010000000431252256,0.001000000374561493,0.04901500584035244,0.44
226,6889,0.18540364284278077,-0.09738476633478152,0.6241882341678485,-0.049756717488406134,0.08746768281374592,-1.3973461306491615,0.01050699884143743,0.8300529084735278,1.502500839261615,2.217022552971874,0.05988547079577695,0.001,0.0010000001662420202,0.0009970089173961796,0.03148043526700726,0.744
226,6890,-0.0454283970878567,0.1870829948785322,0.49846910700864905,0.04483644474459081,0.053176703515979584,-3.141616531315848,-2.414831611188916,-0.7266268722588638,0.8762265224298085,0.8764062248504895,0.0065735356309490215,0.050349170830555214,0.0010000000054400928,0.0009999999885993973,0.022060229057843356,0.452
226,6891,0.33979616270580393,-0.10733755863169472,0.6188164667957645,-0.04997127158556782,-0.08896111121622777,-1.7903609594128005,0.010722159227269011,0.84705057895423,1.5976017163458305,1.5973467377087316,0.09415545893716157,0.001,0.001000000087544555,0.0010042251520060433,0.027537588880518753,0.724
226,6892,0.13951201312178274,-0.1515191392812957,0.38494330246383546,-0.09001427320819119,-0.13096137762376894,-3.141616744151077,-2.6499612792923792,-0.705255493663013,0.4701703291086763,1.7311477334382703,0.00546072614590304,0.04316869793248137,0.0010000000026020852,0.001,0.040975013489600885,0.448
226,6893,0.014862586619486709,-0.09951954944079622,0.6609591307742381,-0.05345402025576497,-0.06976473254115403,-2.7925237053943053,0.0,0.8290313946973037,1.5271630975120938,1.5271665948054263,0.008230544835688787,0.001,0.0010000000255628852,0.0009986599584049507,0.030276877792858852,0.728
226,6894,-0.055507306284944005,0.17991024204209816,0.45764009242978165,-0.037759388292319486,-0.048801184319242866,-3.141617143175445,-2.39125173843175,-0.5897187574997904,1.061493763499434,1.9623035873238988,0.006347893846615483,0.055237879811389105,0.0010000000001873502,0.0010000005037428808,0.014909874231739907,0.424
226,6895,0.07063154182344208,-0.12209105384486658,0.5825895412886037,-0.08733836773669375,-0.1637782120277177,-1.6913558278231842,0.11557698725581167,0.7880249131077988,1.5445288350064799,1.5443941941380968,0.018268744894360235,0.001,0.0010000000623043284,0.0009969818029257884,0.055606925316465994,0.748
226,6896,-0.02937058011461261,0.2428755160795541,0.4634925315131754,-0.029856790184667276,-0.03212958142432199,-3.1416140693209966,-2.299463610862539,-0.7665054240717364,0.9176473386774339,0.9177765619044049,0.0070817745485254645,0.06345319466689081,0.001000000007320533,0.0009999999899455428,0.01842359818434971,0.448
226,6897,0.32036127890960275,-0.08683316292319548,0.6788462472495648,-0.10974719750310079,-0.1265910434057429,-1.6949375886860891,0.010795851043263714,0.7449137219852088,1.4358481901620734,1.4358435882150522,0.1076639995903077,0.001,0.0010000000063941908,0.0009988512773517469,0.03463887410225283,0.716
226,6898,0.1782576151007815,0.1784330289822573,0.5097547124042467,-0.038938686540814844,-0.028204340463019464,-3.1416187312415063,-3.1415926535474252,-0.6371062024762519,1.3840583018327668,3.1196314335750026,0.005352334934368989,0.001,0.0010000000001665335,0.0010001020114964723,0.01888819992789223,0.448
226,6899,0.22420250221047192,-0.052715392976848616,0.7031539773867299,-0.07417187085058428,-0.1280981647923401,-1.9149146864646074,-0.021517757901300172,0.7100860107428983,1.7214207072025811,1.7214934032005296,0.07689926048910478,0.001,0.0010000000035492443,0.0009652685896481265,0.045529809634830866,0.696
226,6900,-0.039204062805670535,-0.01739906477072401,0.4613161304513895,-0.08162226531398142,-0.10790218367488669,-3.1415358728255938,-3.1415926535897802,-0.619622080465807,0.7283277086177029,0.727532143623085,0.015231049335564755,0.001,0.0010000000001526557,0.001000000000388578,0.007648950449534428,0.472
226,6901,0.2279043700104775,-0.0879985431945837,0.6231095311262598,-0.07004827070431488,-0.09525626940013718,-2.34399098138431,-1.2383848363721974,-0.7626561909352068,-0.38482760777862157,0.24499912294459397,0.08746446559298018,0.007481548354329839,0.0013115618440949208,0.00100012511947034,0.028639153573078707,0.684
226,6902,0.2548397451779479,-0.14877168442411293,0.6966098988557413,-0.1989206895174317,-0.11524868905573289,-0.539147086403985,0.8885312515098743,1.3491936116069763,1.8561601651712725,2.3959148009517524,0.08266202800756271,0.001002808638072116,0.13704828425809928,0.05337516293695252,0.04301585627946486,1.112
226,6903,-0.029531285117326177,0.04201757269552174,0.4207639491693104,-0.022802918858515427,0.02988497939608567,-3.1416114659182974,-2.298025452678242,-0.7659713537021049,0.4995465350231121,1.6097678411396412,0.007439660953946182,0.0063924818390546775,0.001000000001304512,0.001,0.013382570113952231,0.472
226,6904,-0.06767981125512876,-0.030847591559212274,0.6672711927191838,-0.004771047512710437,0.07168087386270164,-0.744715451544981,-0.09308422677303119,0.674860644104474,1.3497212882083651,1.698614531604327,0.02128412691648455,0.001,0.001,0.001000000961938862,0.02555435019150868,0.66
226,6905,-0.06707834388042176,0.006898306474100008,0.4294575061109703,-0.02136406443215593,0.08570108974122986,-3.1414224346659694,-2.6461443497978454,-0.6868715120751876,0.9571160414162455,1.970584714659894,0.02286645749273145,0.00020643883297502465,0.0010000000001110223,0.0010000000031918912,0.03078429450224488,0.42
226,6906,0.18786160363647167,-0.07700706456993671,0.6441990675951738,-0.07508337886408403,-0.10307321573162369,-2.354219172492548,-1.2861557570363147,-0.7098452034078864,-0.3162677167606041,0.9486526161814776,0.061159636069810015,0.0008401985136717308,0.0010548049634285786,0.001000052821448604,0.026711311336806133,0.696
226,6907,-0.06614060136671232,-0.0712494771763401,0.9320661482695604,-0.07838279705492601,-0.07562071543615534,-1.5790991472087568,0.6836626499685908,1.286693753661014,1.8393780856723745,1.83940952145462,0.014264400645177073,0.0010000447516711189,0.12630066273266902,0.0005881710631306948,0.017428784415511992,1.092
226,6908,0.070512332778859,0.28013531760193466,0.4182416903235025,-0.06416486396839555,-0.07614193935074323,-2.7720211961275902,-1.2242971370586007,-0.5774986495569472,0.5543987035746696,1.1776686548108066,0.029422401605101435,0.0010000053587204119,0.001,0.001,0.008035414195580971,0.452
226,6909,0.14855757661591704,-0.15087228753531956,0.577878597731492,-0.09484089334295137,-0.13502196823612678,-1.6808825812461392,-0.24344444917116503,0.5216666767953528,1.3331481740243756,1.3323602381299102,0.047936305761515675,0.001,0.001,0.0010000140040340435,0.005072855236956367,0.636
226,6910,-0.11001987150465792,0.39683647660279386,0.4164998999322023,-0.05502354515753472,-0.14277470881494242,-3.141590447332296,-0.9158148325962866,-0.49848149116000373,0.846259275690239,2.0284446686326496,0.011623728157193437,0.0010000000046698756,0.001,0.001000000000138778,0.02518492540646814,0.448
226,6911,0.14728593779706292,-0.1092371852119716,0.610556223344634,-0.09388706803514206,-0.06813526334211362,-2.7178241981778988,-1.2860504466022455,-0.8474989023981692,-0.3506894124741806,0.9645409888891199,0.03857121323571885,0.02276927684236634,0.0011541668850565947,0.001000027730116814,0.02287307637806016,0.636
226,6912,0.10877071124269148,-0.12631786762517755,0.7774126028443515,-0.12321121969512122,-0.20763463153514178,-0.5572755181053434,0.8276238709460424,1.4367076195483908,2.0103457989108033,2.0101271601294393,0.033135861267408605,0.0010001776274127785,0.140426873510262,-0.017629595053540344,0.055753006976252066,1.084
226,6913,0.01961608066056253,0.1892053685982761,0.46904071478682463,-0.06254341176556297,-0.14955045770661973,-3.1415517054100515,-2.021928060648761,-0.6054705841463965,0.7654062101473316,0.7653901471145707,0.013877613992966898,0.055748852892014304,0.001,0.0009999999999791833,0.03660298743837473,0.404
226,6914,0.12067803053718472,-0.10577757227809605,0.5460834589981944,-0.08154051152436191,-0.055269849630783165,-1.8370263889592051,-0.07609393970632716,0.6196220804658066,1.6631960239613592,2.358917800006611,0.04536825956767039,0.001,0.0010000000001769418,0.001035524487056876,0.02356716061103393,0.696
226,6915,0.06378914221782941,0.050955414012676774,0.06369426751570709,0.05095541401295433,0.06378914221838453,2.7755575615628914e-16,0.0,0.0,0.0,2.7755575615628914e-16,0.010336755591363834,0.001,0.001,0.001,0.010336755591273629,0.46
