Numéro enregistrement,Numéro battement,Amplitude 1,Amplitude 2,Amplitude 3,Amplitude 4,Amplitude 5,Centre 1,Centre 2,Centre 3,Centre 4,Centre 5,Ecart-type 1,Ecart-type 2,Ecart-type 3,Ecart-type 4,Ecart-type 5,Période interpics
230,7001,-0.23262563898482183,0.05641650607720734,0.7361972629770848,-0.09085456675058295,0.3926286822545317,-3.1416541078583444,-2.778124424919789,-2.089610286109799,-1.6352170981889276,1.0650226605509887,0.003018275084619143,0.00991064000717312,0.13097305657817104,0.004252643726608953,0.10546307348431291,0.316
230,7002,-0.05685484177448656,-0.1086894267040677,0.5922496503901087,-0.1467093325112762,0.2579441357065364,-1.208304095017303,-0.31066269625962156,-0.026719153264010267,0.21818320451774553,1.7531712647454363,0.00989854952339715,0.018255614772466303,0.0668687838607751,0.031767213030951494,0.051388526657512666,1.61
230,7003,0.11695224386923139,-0.047547115636196874,0.6684588435274781,-0.1267775587520031,0.27841981158540097,-2.99103794689085,-0.24861603559140116,0.014955183408864696,0.24087149933734703,1.7781516296229884,0.02424257282056639,0.0007423992636330656,0.06665118381708995,0.025378939099494586,0.061826581298680766,1.668
230,7004,0.10801964129821477,-0.02162657666662313,0.6643638132279293,-0.06670081590132701,0.37611147242020154,-2.9927615049712166,-0.27531982419854656,-0.006920007930880167,0.2231478878052718,1.719896759964091,0.02163856607629131,0.0025064060525302138,0.07492659773781954,0.011829961212488466,0.09188045012876017,1.668
230,7005,0.0017998932864247542,-0.04246322179770209,0.6516292794094021,-0.08842076811548884,0.3873777385644654,-3.104147919677137,-0.18319133182796254,0.07927441738409148,0.3105242483367321,1.8312212449894596,0.010040041866135286,0.002620861940193613,0.06789604259083745,0.02216487932993584,0.09940489742130178,1.708
230,7006,-0.031074243690277125,-0.04433023172243182,0.6260049356656101,-0.1283520960366325,0.38027046383085533,-1.214228857241716,-0.27337026342066584,0.035151986701381366,0.3047608044110999,1.7925768512280906,0.009057454943322786,0.002706434596251965,0.0710931778896963,0.016825202686621497,0.09823129572698573,1.65
230,7007,-0.08848740086894386,-0.04834556689229445,0.6401999515475316,-0.13085851750115624,0.34932494146358967,-3.0407743072700937,-0.2789046834357354,-0.007643784770485548,0.2325880880535613,1.8076551544124146,0.0202771387366883,0.0027233980125104455,0.0679393151629741,0.02606062288828644,0.0846467579613546,1.61
230,7008,-0.012036300052330993,-0.037095944385954836,0.6675024282360833,-0.06783557166641796,-0.04389008776215656,-0.024371287753367804,1.4246761998199429,1.9123545473170653,2.313873293853624,2.31348034883709,0.010019508757772395,0.0006882535754187692,0.11896161721766565,0.0002893398674011201,0.01492313461026777,1.628
230,7009,0.273175205401719,0.1852306404165768,-0.006814685418298715,0.00261074746361606,0.06496408665457643,-1.4696086710926515,-0.9718594992269447,-0.15820970197936024,-0.022601385997048237,2.3731328226654695,0.06376039870109644,0.001041715253817215,0.0009999999523055128,0.0010000000038510861,0.020850658065653782,0.436
230,7010,-0.05669446306809225,-0.09385020416120819,0.6010670847922907,-0.15252022511485924,-0.14594852719519585,-2.876630342918274,0.9343846553039171,1.5381486369812098,1.994352930762172,1.9938404819198754,0.006272856014410679,0.0010199553893062699,0.12593471124683586,0.00024532010017394405,0.0349174189701322,1.232
230,7011,0.17234578164994677,0.30200094593041726,0.3486816299888589,0.02910095178276238,-0.005780525953210682,-2.5665849353699293,-1.689843274266749,-1.4448782824762565,-0.3378829627335002,0.1078175404387494,0.04653256486643031,0.06896772555055931,0.07727364977392391,0.0010000126308373483,0.009916873833005031,0.476
230,7012,-0.0040957890474904056,-0.08736826038545277,0.6482958273722224,-0.20426428359619156,-0.1282868358702899,-2.7821457657104864,0.9561367767572417,1.4742738492927205,1.9045655141453217,2.379707520897466,0.011775243494300076,0.001043690964398463,0.11456142699262345,0.044271400170474165,0.034160804061954694,1.272
230,7013,0.15850720716915614,0.33307627316507155,0.35515815683057433,0.03281260940470911,0.059365404130578454,-2.5237813563422358,-1.6705044339876929,-1.405207360823036,-0.25750759455529665,2.685305436812521,0.0403591120252821,0.07585608592497714,0.07886975944683657,0.001000002286983103,0.009976608897351398,0.476
230,7014,-0.04947587641620055,-0.08962033654096664,0.618934045554331,-0.14667531107269144,-0.13766011603172085,-2.876722222090739,0.9343846578754174,1.4940742317744526,1.949877775070548,1.9495086858962942,0.012688729405023148,0.0010188801154883678,0.12290132132222992,-0.00010443963342171611,0.02073995031936405,1.232
230,7015,0.11366577227612085,0.32350035821849404,0.3407622557867055,0.017182058775159863,0.05896027555409431,-2.8254158092294497,-1.7040949759806603,-1.444873919970615,-0.3235049643316827,-0.323543863486376,0.030757405191647307,0.07436583408973368,0.07516261563074347,0.0009999956231955256,0.02206156138536597,0.476
230,7016,-0.03384410609580979,-0.03380289150738572,0.7156158283412299,-0.07356649603265308,0.06337526574201512,-2.788417581617959,1.0815318048070877,1.6115110724702335,2.0675196634580444,2.7001494932101444,0.005222981340720055,0.0010318790030935656,0.13496889054549993,0.0053250675895792484,0.019577207847673285,1.272
230,7017,0.29615148994507323,0.20538065663016514,-0.019207031398595618,-0.03132018944439423,-0.03269967750651337,-1.5232922964804212,-1.037334023494819,-0.2133634354893401,0.051501518911359304,1.5081591040917728,0.07293096858725137,0.014432946608167572,0.0010000007442345351,0.0009999998979739735,0.005687239339157273,0.436
230,7018,-0.016130158163365226,-0.042644167163031245,0.7429630653941226,-0.11378839956704909,-0.14777661243349483,-2.7737294129251686,1.0521023737118298,1.5386002223915873,1.9935402576756516,1.9936477143011135,0.013231638907766309,0.0010303596075258705,0.1208229368419568,0.00571580611964909,0.04866671349115481,1.272
230,7019,0.2203045388864461,0.28389367912679087,0.2777111790572926,-0.02951815080947927,0.056520836442525854,-1.7558563000716707,-1.4843724418807849,-1.227893998803132,-0.15820970197941753,1.4841774125473177,0.056272030288476646,0.06082374390658275,0.05632182973243264,0.0009999997933874951,0.02243095763112099,0.436
230,7020,-0.006967270576413542,-0.07929432206583395,0.6891044756711128,-0.16300368014303496,-0.1595248928776975,-2.862022487813219,0.9343846638828471,1.450017431613328,1.9057536460434883,1.9051490394005284,0.012591237215430996,0.0010163393550148272,0.11828564879030097,-0.0005659255362017441,0.0533828204051031,1.232
230,7021,0.17949058087747427,0.33818880873883794,0.342444734032025,-0.005152305019921979,0.05731511082380428,-2.492840358635435,-1.543439285240266,-1.2739977244832519,-0.15035330080152667,2.809177268763973,0.04543182344368031,0.07782317612125322,0.06775136497672973,0.0010000000036914916,0.014362209408841737,0.476
230,7022,-0.04126820462297718,-0.0642254639610074,0.7111441475439857,-0.1583756158501026,-0.10105915948348715,-2.7142993772870154,0.7675931669267967,1.3219973464757846,1.811861435644767,2.318624116512664,0.016929053547967397,0.001000288072048854,0.13063544178320313,0.051481572770214784,0.028133038246655872,1.112
230,7023,0.119717764718951,0.34256438214042784,0.24699008056719426,-0.008179179343083189,-0.028044727459422394,-2.4270219824603276,-1.46291864806178,-1.1635526770829208,0.016622183352327013,0.33252412853124297,0.024004791624687424,0.07131211748506633,0.001063260702669321,0.0010000000000138778,0.013695279583180965,0.476
230,7024,0.09368380013458263,-0.06931876652057217,0.5544102734506632,-0.16678746305261624,-0.25408672183315384,-2.8091817936914385,0.5983986006802856,1.146822052057169,1.6622184880832076,1.6620570495664306,0.030816972939999278,0.0010000062468294426,0.00581281713723275,0.0007352771349892774,0.0675629227055411,1.036
230,7025,0.14055960576554175,0.3043122764890577,0.24061840742033094,0.012357179506732227,-0.05559640679510999,-2.4201228620925397,-1.3991262162195022,-1.0999974214362627,0.30799927976370567,2.595912277753946,0.03835536548478905,0.047789646989627024,0.0010044390064471434,0.0010000000007632784,0.00588828387456218,0.476
230,7026,-0.007431178300194501,-0.051221146867886175,0.5559441374714038,-0.15598036427730416,-0.13062528393367884,-2.701603927555034,0.5367987447309749,1.2055970185305314,1.8215957463134436,1.8224040802614299,0.013916816537982669,0.0010000001770805724,0.0010711363407970844,0.0006411756753161869,0.022390257672176252,0.952
230,7027,0.3328035784314496,0.2148052066407786,-0.021919143761983353,-0.03967219867446508,-0.06516803061929793,-1.3868272925847231,-0.8073366595380785,0.1755079694742897,0.5265239084229107,0.5266587603194339,0.0910970711632095,0.001000063843250131,0.0010000000001457168,0.0009999998699512505,0.023356286476008653,0.476
230,7028,0.09512644702719042,-0.019879630086681314,0.615851493888571,-0.10107731153216896,-0.11697063169391624,-2.7805167813697786,0.559709035984379,1.173583433861427,1.732940186908572,1.7331527948467207,0.0317720437423463,0.0010000000331887296,0.0010181777206897938,0.0032763212681048547,0.03835413999357358,0.956
230,7029,0.026404811701647497,0.17734265816200973,0.1861558723864464,-0.00865468557068339,-0.04736616783069897,-2.2001007278089815,-1.1679119607278596,-0.8600902077277524,0.11769655474543894,2.580215605449315,0.01820645724140116,0.0010038608614742752,0.0010000422468865447,0.001,0.005766758904221908,0.436
230,7030,0.0046219262990257,-0.019953362381997804,0.5580189114408983,-0.17216536330587645,-0.014647795942953496,-2.6889205643462653,0.552268449190142,1.1498047894887102,1.7290340250543852,2.3630046747640194,0.012152657537474144,0.000999999974430176,0.001010196515104477,0.04044070664783918,0.014771570398028023,0.952
230,7031,0.08784710140990852,0.21687605567865298,0.20930091882632285,-0.013719518837153694,-0.053472437033501616,-2.5818647745984746,-1.1555283261756364,-0.8666462492270159,0.14444104154435766,0.4692117370960952,0.024118497663397055,0.0010043231354815432,0.001000058205933129,0.001000000000006939,0.015000803044677392,0.436
230,7032,0.07623133190381191,-0.08047054190376762,0.5249673079857325,-0.17249792825391186,-0.23327641983739156,-2.8081426474308437,0.4738715175805558,1.0705986038757842,1.6146736182745858,1.6144802807337948,0.0219899990008651,0.001000000107067133,0.0010072871322726043,0.000814134002525114,0.06407667749465781,0.956
230,7033,0.14483542384936954,0.3159051205882936,0.23227134257805804,0.01695656316898926,0.06758754616947951,-2.4056980186039016,-1.4296323542104399,-1.1556266873060161,-0.16264376135751013,2.610846516567961,0.03862331991867337,0.061199257093308854,0.0010200299458824605,0.0010000000003053114,0.02253873800596132,0.476
230,7034,-0.14211609969290498,-0.01478249052692024,0.7398430953465607,-0.12456868985845779,-0.002827401402606651,-3.1417294094034642,-1.0983592603082728,-0.7718733542169982,-0.4748006008233585,2.7482941783134174,0.002468868533504452,0.0007051104015238797,0.08481404917817001,0.02447172026726656,0.010109982139048746,0.992
230,7035,0.01758657972177382,-0.012221548263857974,0.7289737283809778,-0.13383176806914374,0.33888856889900865,-3.0840798766594357,-0.4672859490118739,-0.22273625227082727,-8.243435260110733e-05,1.481142050975668,0.011476697925800706,0.0007216521333380532,0.0629367228858921,0.028446785367885717,0.08952285606366647,1.628
230,7036,0.016798342524680814,-0.07846909564721956,0.6533846581617254,-0.12317705915597199,-0.12435938492673196,-3.0665348203496365,1.5440264489842634,1.9414989148496373,2.2832064970907493,2.2837924279167487,0.009162929105907226,0.00010757236424446683,0.0944857942518075,-0.01877071183956877,0.0011467173195865658,1.868
230,7037,0.13888362859783607,0.336673174027322,0.3286515888675795,0.015044334764863202,0.06527857929130357,-2.5885764951034083,-1.811769685826311,-1.5738818035915925,-0.5466502927425432,2.851856434634113,0.03836525480423225,0.07323292330560063,0.07709971583628922,0.001000735723350298,0.02196273825286585,0.476
230,7038,-0.021323567275000073,-0.0615473719116737,0.6597597952511636,-0.14362734028908,-0.06441190058598983,-2.930800182902028,-0.6440712618673806,-0.3035738595206962,-0.028214578911122612,2.7200127036697173,0.009550671232403897,0.0028103128695892627,0.07562395695111496,0.025473619626395876,0.017562029055052632,1.432
230,7039,0.110018485260203,-0.10418963362646008,0.6098955375406703,-0.12389925615272451,-0.13882262324313815,-2.907222386938749,1.3716072592307063,1.7944118318619917,2.1802312086671702,2.179740376846375,0.030887953065266267,0.026483948863251606,0.09132922082129888,-0.0036828778436161416,0.024523761320214107,1.668
230,7040,0.03978064201298769,0.039735099337801054,0.02649006622515443,0.039735099337801054,0.02653446108960572,0.0,-4.163336342344337e-16,-4.163336342344337e-16,0.0,1.3877787807814457e-16,0.01013894818546436,0.001,0.001,0.001,0.010099715949608524,0.476
