Numéro enregistrement,Numéro battement,Amplitude 1,Amplitude 2,Amplitude 3,Amplitude 4,Amplitude 5,Centre 1,Centre 2,Centre 3,Centre 4,Centre 5,Ecart-type 1,Ecart-type 2,Ecart-type 3,Ecart-type 4,Ecart-type 5,Période interpics
232,7087,-2.489652928261421e-06,0.0,0.0,0.0,-2.489652511927787e-06,2.7755575615628914e-16,0.0,0.0,0.0,-4.163336342344337e-16,0.010000000368614826,0.001,0.001,0.001,0.010000000368573193,0.276
232,7088,0.603538620440861,0.5960582065894593,0.18538868821694168,0.218175690416283,0.18020418783887732,-3.141728340549049,-3.138430811245366,-1.7024273039006121,-1.1057002076880278,0.15803683672100538,0.02446406477862565,-0.03504249464781578,0.0010000000096242459,0.001,0.03438739173696306,0.16
232,7089,0.08930331088825358,0.08866367857946819,0.15441385734324928,0.08564596760203667,0.15572126861850288,-3.1415703160147013,-3.141592653398326,-2.3977471690518524,-1.728805424756513,-0.24165816555553035,0.013100166133668224,0.001,0.02208667407520885,0.0010000000004718448,0.05759739615319009,0.476
232,7090,-0.09393023582313084,-0.08053691275156091,-0.09395973154344148,-0.08053691275197725,-0.0939302358234084,-1.3877787807814457e-16,0.0,0.0,0.0,0.0,0.009847229023533478,0.001,0.001,0.001,0.009847229023512661,0.16
232,7091,-0.055570077042016344,-0.04469273743035175,-0.05586592178724582,-0.04469273743118442,-0.055570077042710234,-5.551115123125783e-16,0.0,0.0,0.0,-1.3877787807814457e-16,0.009269795089025491,0.001,0.001,0.001,0.009269795088963041,0.436
232,7092,0.04315668179682996,0.05755395683509922,0.04316546762528361,0.0431654676272265,0.043156681797662626,-2.7755575615628914e-16,0.0,0.0,0.0,0.0,0.009965052663475317,0.001,0.001,0.001,0.009965052663447561,0.32
232,7093,0.1512607391319919,0.1344537815127499,0.15126050420102832,0.134453781512056,0.15126073913185312,0.0,0.0,0.0,0.0,0.0,0.010002656653841325,0.001,0.001,0.001,0.010002656653758058,0.316
232,7094,0.4894665605286014,0.4894866794215419,0.29137965199502414,0.3144966625202516,0.555768342964218,-3.141573032808325,-3.141382885328705,-0.6114509191550606,0.14759160117535897,0.14797443576956176,0.01262220750352201,-0.005555187950105233,0.001,0.001,0.14219791770419088,0.16
232,7095,0.09264466038563793,0.0,0.0,0.0,0.08461374216978126,6.24041699640032e-05,0.0,0.0,0.0,7.576947434292934e-05,0.0264631046222982,0.001,0.001,0.001,0.025237349983300544,0.356
232,7096,0.08461374216964249,0.0,0.0,0.0,0.08461374216880982,7.57694743432069e-05,0.0,0.0,0.0,7.576947434306812e-05,0.02523734998326585,0.001,0.001,0.001,0.0252373499832034,0.676
232,7097,-0.18716709510151489,-0.048044787738562675,0.317948936877614,-0.09811411091209253,-0.09712916043155528,-2.282177889096152,-1.4690900898081767,0.5650346499262215,1.6499011777845682,-3.096379794537965,0.013956774639393666,0.001,0.001,0.001,0.009995772826846784,0.356
232,7098,0.0,0.0,0.0,0.0,0.0,0.0,0.0,0.0,0.0,0.0,0.009999999999999966,0.001,0.001,0.001,0.009999999999999966,0.32
232,7099,0.10024396730562438,0.0,0.0,0.0,0.10024396730534682,-5.083046310722093e-05,0.0,0.0,0.0,-5.083046310666582e-05,0.02735097955435359,0.001,0.001,0.001,0.027350979554256444,0.16
232,7100,-0.268938447531715,-0.26901876089475835,-0.09677917529301261,-0.03942580655841923,0.02052381971221646,-3.1416131684708626,-3.141592646793149,-2.7360127617064656,-2.204182352307962,-1.190769737140288,0.006015855439984733,0.0009999999992367217,0.006661317946693847,0.0007592106090946194,0.01004852255913037,0.752
232,7101,0.561480115335954,0.5626840929518918,-0.018423130573806054,0.04394515914764939,0.3097061855551628,-3.1416984687245404,-3.140600300162309,-2.277237748604998,-1.8450623521066696,0.1496487908297745,0.022781687594970443,-0.03737060820001403,0.001253222772264583,0.0010000033894415053,0.07678944218770081,0.24
232,7102,-0.061339851755573306,-0.13246626774861398,0.25559809593248695,-0.23747376621968516,-0.2698024098742849,-3.014901419264224,-1.1907649574090304,0.050670849251448186,0.7853981633974483,0.785823772501348,0.0076976021912114195,0.0010000000170974346,0.001,0.001,0.05625315232292822,0.516
232,7103,0.3164656888546267,0.2603687606969594,0.06338995837451533,0.1876775747963405,0.2511380575320388,-3.1411529161232483,-3.1415926535815197,-2.8963261401966287,-2.638337133713846,-1.1541673175596239,0.03252748450200241,0.001,0.0028887499809022647,0.034936574434026445,0.05038637653719374,0.476
232,7104,0.04956173276330386,-0.12474364070001284,0.23871961080402798,-0.17802629648513407,-0.15419546640577975,-2.7931336005898446,1.1797740762605116,1.7485268471006652,2.1489415537474987,2.470270354449966,0.013770858949897448,0.004345086240225127,0.01938042253643478,0.011428352264807396,0.003693309425765719,1.472
232,7105,0.325358879212642,0.27443204239613034,0.1477991382749608,0.22834917971236168,0.21322141639894543,-3.1411205981057253,-3.141592653571821,-2.8724725380722353,-2.6301101956345163,2.442163344423034,0.030272678705995912,0.001,0.022811599699647626,0.041622270450194114,0.04482589933137552,0.476
232,7106,-0.06457088707706961,-0.050030645121733094,0.3842125798312257,-0.2576374215888408,-0.23648354437532085,-2.6437894084424367,1.0427129480398127,1.4872178762046382,1.8756467991899874,1.8767676785828167,0.01467718514689238,0.0009319553546164864,0.06681195728299497,0.004685860979631149,0.03194715080215681,1.392
232,7107,0.3151396195218882,0.25811023458076743,0.28248725913866973,0.31333454879742517,0.5064220171464623,-3.1410834985247607,-3.1415926535554335,-2.8409759524087512,-2.540083154549114,-1.0041429942883628,0.03347207097463946,0.001,0.051821247383176,0.060455794912233275,0.08417809527747461,0.476
232,7108,0.5645641487591928,0.5832159669555175,-0.055496428658307305,0.18135909214316168,-0.009011946933229863,-3.1420965589261787,-3.1415924475323442,-2.6838504415865243,-2.4727313705738245,1.5400374521727547,0.017489990145909105,0.000999999401048556,0.0045235488422130645,0.03642453153385084,0.013170835930509063,1.112
232,7109,0.22100335661707882,0.04113835689079344,0.4005994779015308,-0.050856870358022076,-0.10760103479748169,-3.141590431896971,-2.298212072411566,-0.14759160117536008,0.9066341215057792,0.9059859938169692,0.010444725490919527,0.0010021004434164196,0.001,0.001,0.014785057560338611,0.316
232,7110,-0.2440293098733387,-0.24403419590255881,-0.017917243586010646,-0.0703493928944128,-0.08675675690758633,-3.141592832681612,-3.141562611759866,-2.313575985217451,-1.1933181397356578,-0.2679321771036719,0.009965404331024564,0.0009885976715366387,0.0009999785390905616,0.001,0.005673919946509452,0.36
232,7111,0.0,0.0,0.0,0.0,0.0,0.0,0.0,0.0,0.0,0.0,0.009999999999999966,0.001,0.001,0.001,0.009999999999999966,0.156
232,7112,0.11850730058202145,0.09132420091331755,0.09132420091359511,0.09132420091317878,0.11850730058077245,1.3877787807814457e-16,0.0,0.0,0.0,0.0,0.02512328932640886,0.001,0.001,0.001,0.025123289326048036,0.676
232,7113,-0.24890157344961372,-0.2489381269662162,0.0037205864182784697,-0.001012909748426017,-0.08315732971010023,-3.1415992858762705,-3.141592229341002,-2.621093017973365,-2.4351991040585808,1.207916129007312,0.00888889695352081,0.0009999973687020427,0.0006994714649839485,0.0009823814708296843,0.012729098485816616,0.2
232,7114,0.2474566346357452,0.07333343376722642,0.4110877589442068,-0.12021695455770269,-0.1537225603561593,-2.660152130390824,-1.1400941081575864,-0.10134169850289654,0.6080501910173797,0.6072799488128579,0.055188480843588766,0.0010000000024424907,0.001,0.001,0.02714185479877171,0.476
232,7115,0.06187642875940613,-0.04096259223596691,-0.04883928817620805,-0.036675020046867304,0.40057661888144813,-3.1415993688715225,-3.047208057360293,-2.510116743320479,-1.9733622189536761,-0.2688933432480091,0.008798595356064266,0.01172376069978506,0.00019786028843016192,0.0010005243323275561,0.09045471351854353,0.516
232,7116,-0.2452157931876705,-0.24527895754183426,-0.01677774819690208,-0.06133352125671393,-0.15088274644376107,-3.1416043425393596,-3.141592579582644,-2.509950047182124,-1.8450623521105536,1.412052319647555,0.008037647169185603,0.0009999999155606,0.0006825604058683944,0.000999995270123787,0.011207422033043491,0.16
232,7117,0.08319769278314351,0.0,0.0,0.0,0.08319769278203329,8.599329964331658e-05,0.0,0.0,0.0,8.59932996419288e-05,0.023968434340247396,0.001,0.001,0.001,0.023968434340080863,0.596
232,7118,-0.020497631758796292,-0.055999134121741304,0.3175953489953442,-0.17238060117069773,-0.24118896654562602,-3.0737895938725903,-0.5424332639291731,0.24861524596753692,0.8814540538849056,0.8810989009883703,0.011288818344394281,0.001,0.001,0.0010000000035249581,0.058330833214795055,0.596
232,7119,0.11345040382221287,0.1117318435756021,0.11173184357671233,0.11173184357643477,0.11345040382221287,2.7755575615628914e-16,0.0,0.0,0.0,2.7755575615628914e-16,0.01391233470130311,0.001,0.001,0.001,0.013912334701386376,0.516
232,7120,-0.08050730381806145,-0.08053691275142214,-0.08053691275058947,-0.08053691275142214,-0.08050730381917168,-1.3877787807814457e-16,0.0,0.0,0.0,0.0,0.009858495520747813,0.001,0.001,0.001,0.009858495520747813,0.12
232,7121,0.11829261876500893,0.11826943869409066,0.07568392159538162,0.0934135332042119,0.19245744659933797,-3.141590733162319,-3.141592648057273,-2.256043045440144,-1.5391695551144622,0.14765308432424662,0.010351914296592392,0.0009999999994587663,0.0010009657456084833,0.001,0.0674841726123932,0.476
232,7122,-0.16027566966757095,-0.17708251095375865,0.014014275401886784,-0.03380621408031569,0.1514924427365594,-3.1415926724885823,-3.141592949959312,-1.715995987254929,-1.1351973454147992,0.5015179265959051,0.009995854779874481,0.0010000300711261447,0.001,0.001,0.03985033922930925,0.12
232,7123,-0.08403337969420385,-0.10084033613383389,-0.0840336134452779,-0.08403361344569424,-0.08403337969420385,5.551115123125783e-16,0.0,0.0,0.0,6.938893903907228e-16,0.009997892238055818,0.001,0.001,0.001,0.009997892237972551,0.436
232,7124,-0.13433458009368152,-0.21433458037548062,0.38372268229566336,-0.09381214444069559,-0.07005185789013998,-3.141592653658552,-3.1415925450373323,-0.06283185307179595,1.6964600329384885,3.078806817906218,0.009999982358320182,0.001000006668512964,0.001,0.001,0.009849646566033,0.12
232,7125,-0.17947606707954772,-0.17947636488840862,0.011526644020049414,-0.020692297815951805,-0.09851524280795823,-3.141592674272754,-3.141586595797707,-1.663196110724008,-1.1351973454147992,-1.1347604637409616,0.00999553623082623,0.0009994754726825863,0.001,0.001,0.017973147707528142,0.316
232,7126,0.09611407030114644,-0.12237320744855512,0.05448922821295488,-0.03283212402318442,0.3104087987613108,-3.1415926540842363,-3.141592653589793,-2.7190836284967834,-2.191194876033209,1.4521389207513036,0.00999986790231301,0.001,0.00785094866554465,0.0009999999968844367,0.09838926300530629,0.16
232,7127,-0.07339451182211684,-0.07339449541246543,-0.0733944954132981,-0.07339449541246543,-0.07339451182128418,0.0,0.0,0.0,0.0,-2.7755575615628914e-16,0.010000167959889018,0.001,0.001,0.001,0.010000167959847385,0.12
232,7128,0.13651681775476518,0.010842930421343454,-0.0012569009988227524,0.02435523916780269,0.17191748503000556,-3.1415926529890825,-3.141592653373307,-2.507509732635057,-1.98871461557519,0.20173001954809872,0.010000176895519032,0.001,0.0010000375499215055,0.001,0.04220592629172432,0.396
232,7129,0.0027652451908832787,0.0,0.0,0.0,0.0027652451914383903,1.3877787807814457e-16,0.0,0.0,0.0,0.0,0.010176301302792746,0.001,0.001,0.001,0.010176301302813563,0.12
232,7130,-0.09174310286547135,-0.09174311926568587,-0.0733944954126042,-0.09174311926596343,-0.07339447901127946,1.3877787807814457e-16,0.0,0.0,0.0,0.0,0.0099998063013942,0.001,0.001,0.001,0.009999832121719244,0.2
232,7131,0.04422688863469508,0.10177595262658026,0.080368076228224,0.10087891315579113,0.28044244569130006,-3.141592369693839,-3.141592653589136,-2.2375372136690097,-1.3334817738258835,-1.3335644159035025,0.01005936176918072,0.001,0.0010000574644429263,0.001,0.07911836637256425,0.236
232,7132,0.5543170480250554,0.554229765208248,-0.04627945527945253,0.41225687891732793,0.15954164233423235,-3.1415560486587006,-3.141377135870165,-2.0451979020013393,0.10542257226811413,2.0449137725181896,0.014219433532889859,-0.007083104527545346,0.001000000220018448,0.001,0.03969672107404345,0.32
232,7133,-0.10084010240149485,-0.0840336134447228,-0.08403361344569424,-0.0840336134452779,-0.08403337967102795,-1.3877787807814457e-16,0.0,0.0,0.0,5.551115123125783e-16,0.009997780113648836,0.001,0.001,0.001,0.009998032433230731,0.356
232,7134,-0.013391312660981924,-0.013422818791603008,-0.013422818791880564,-0.013422818791325453,3.2455621246105584e-05,2.7755575615628914e-16,0.0,0.0,0.0,4.163336342344337e-16,0.00995578385949404,0.001,0.001,0.001,0.009990180087373858,0.12
232,7135,0.08517275523688936,0.044884071857009475,0.07072923365017739,0.07116442304006751,0.2008020268260486,-3.1415916528308108,-3.1415926535383925,-2.298212070099308,-1.5391695551144622,-1.5391607975718644,0.010198740290772957,0.001,0.0010036766501787522,0.001,0.06385891647435865,0.476
232,7136,0.025073444389206445,0.012578616352537653,0.025157232704936527,0.012578616352121319,0.025073444388512556,4.163336342344337e-16,0.0,-4.163336342344337e-16,-1.3877787807814457e-16,-1.3877787807814457e-16,0.009868472589085976,0.001,0.001,0.001,0.009868472589099854,0.12
232,7137,0.0661261090765577,-0.0710063140839887,0.038412842350334625,-0.15945254829162192,0.041767278792063635,-3.141593862798837,-3.141592653589792,-2.9088292296716887,-2.4429688932716873,2.077772449175985,0.009773132867288105,0.001,0.003920338142337046,0.009895848077422583,0.009629683078407293,0.436
232,7138,0.5968965112042289,0.5914017107036517,-0.04270459524238835,0.020958517091959603,-0.1272661911483042,-3.1416061529251587,-3.140648105090307,-2.1536704355949428,-1.6004339933381966,1.4425384334298426,0.01622351308234013,0.07570450819210134,0.0009998708949261461,0.001,0.05080341276917205,0.32
232,7139,0.10981408035951279,0.04779764841678314,0.055373030270974656,0.057264632097809916,-0.01447219294366331,-3.141592589930981,-3.141592653588959,-2.21616225950877,-1.2907318654283644,0.17042230457180982,0.010014955148411287,0.001,0.00100000089319524,0.001,0.011092017616235973,0.316
232,7140,0.046513459654867854,0.04651162790733642,0.04651162790733642,0.04651162790678131,0.04651345965389641,5.551115123125783e-16,0.0,0.0,0.0,5.551115123125783e-16,0.010007913298287442,0.001,0.001,0.001,0.010007913298322136,0.2
232,7141,0.10788961000230149,0.04587317831506192,0.06690505126201578,0.07984161924089128,0.15991084148248355,-3.1415925908853053,-3.1415926532164886,-2.2161622595087067,-1.2420250025820114,-0.31647967872476634,0.010014736911128875,0.001,0.00100000107926168,0.001,0.05914932548633767,0.396
232,7142,0.012072775858185114,-4.163249606170538e-13,-0.0005535275837686895,-8.326585948514875e-13,0.00021070106173693738,8.326672684688674e-16,0.0,0.0,0.0,-4.163336342344337e-16,0.010136734081591893,0.001,0.001,0.001,0.009957447752239846,0.12
232,7143,0.1578122871825629,0.11845706817625892,0.2028202587638676,0.07913973352792801,0.23077159444908146,-3.141240846122078,-3.1415926534611023,-2.5099530726567405,-1.9417884235314413,-0.0157588457543181,0.036786325832486866,0.001,0.0441935108905629,0.001000514741076152,0.06271756144169949,0.476
232,7144,0.5851603811936718,0.5854078468094487,-0.032508023788240165,0.3207093389475994,0.22119011329764482,-3.141589673811742,-3.1410632342949905,-1.9663205817432519,0.15820970197934148,3.0965625038789897,0.010432268189021167,-0.002976913810113669,0.0010000000001665335,0.001,0.009926764978827564,0.32
232,7145,0.12371520993727347,0.05648820152202971,0.053207923843459834,0.056981592973897495,-0.007997046522867259,-3.14159264365936,-3.1415926508274943,-2.085595122971366,-1.1351973454147992,0.5016193988046644,0.01000251816966581,0.0009999999998542832,0.001000000000006939,0.001,0.007801083460834093,0.316
232,7146,0.5252391394488041,0.48292316478838115,0.21525143699575014,0.26335936886440203,0.5512799818923608,-3.1415922185843153,-3.140322071528531,-1.095904414042951,-0.26788774565494355,-0.2680125954877915,0.01006487874136537,0.14051735854529632,0.001,0.001,0.14210810603095364,0.16
232,7147,-0.08403337969448141,-0.08403361344569424,-0.08403361344583302,-0.08403361344500035,-0.08403337969323241,4.163336342344337e-16,0.0,0.0,0.0,0.0,0.009997892238000307,0.001,0.001,0.001,0.009997892237965612,0.316
232,7148,0.015505697368162192,-6.938893903907228e-13,0.01550387596915835,-1.3877787807814457e-13,1.8142883029268267e-06,1.3877787807814457e-16,0.0,0.0,0.0,2.7755575615628914e-16,0.010002395401377219,0.001,0.001,0.001,0.009999147472909376,0.16
232,7149,0.10716112548195164,0.02964081987072331,0.04154369470279469,0.0603521119159204,-0.13510405927166594,-3.1415925982089976,-3.1415926534971135,-2.1674553966626995,-1.2420250025820114,2.1183692402674246,0.010013250450660273,0.001,0.0010000000649688636,0.001,0.015411977996090632,0.396
232,7150,-0.040237931770992115,-0.026845637584316184,-0.040268456375780366,-0.026845637583622295,-0.04023793177002067,1.3877787807814457e-16,0.0,0.0,0.0,-1.3877787807814457e-16,0.00991416866219892,0.001,0.001,0.001,0.009914168662164225,0.12
232,7151,0.24021739217884214,0.11498526587332492,0.39697652935210725,-0.07900242033220428,-0.07159135171896536,-2.36074476058508,-0.8365187539144419,0.2788395846381473,1.431376534475823,1.4314782862529443,0.05429177334749904,0.001,0.001,0.001,0.0029004291605721926,0.396
232,7152,-0.17617720608339732,-0.15951069605701657,0.014167666429932883,0.013300745857903537,0.07725515427951066,-3.141592676286164,-3.141591205385154,-2.4085543678407157,-1.7278759594743862,-1.7278622456143697,0.00999491384548158,0.0009999684294760272,0.000999908661112158,0.001,0.029909779840336635,0.36
232,7153,-0.06708440132854873,-0.06711409395968035,-0.06711409395912524,-0.06711409395926402,-0.053661343275695945,2.7755575615628914e-16,0.0,0.0,0.0,-2.7755575615628914e-16,0.009865013600795737,0.001,0.001,0.001,0.009881576048590924,0.12
232,7154,0.04030386346068348,0.026845637583206072,0.02684563758376113,0.026845637583622406,0.026880212700697292,-2.7755575615628914e-16,0.0,0.0,0.0,0.0,0.010097804876308914,0.001,0.001,0.001,0.01006445347845021,0.396
232,7155,-0.09174311926610221,-0.0917431192655471,-0.09174311926693487,-0.09174311926568587,-0.09174311926637976,6.573493138706255e-10,0.0,0.0,0.0,6.573483424254789e-10,0.010000000000069354,0.001,0.001,0.001,0.010000000000027721,0.12
232,7156,0.14191453356822478,0.03182278224268866,0.06914462056152001,0.07670756791913362,0.28652706833031805,-3.1415926528986184,-3.1415926520674224,-2.0463585174759116,-0.8934804794613171,-0.8931629305048011,0.010000199864832983,0.0009999999999514278,0.001,0.001,0.07196467568544285,0.276
232,7157,0.03100957911575386,0.01550387596818692,0.015503875968880794,0.015503875969019587,0.01550569736899486,-9.71445146547012e-16,0.0,0.0,0.0,-5.551115123125783e-16,0.010005319314461093,0.001,0.001,0.001,0.010002395401321707,0.24
232,7158,0.14573784918007254,0.08595001890887023,0.41065665235070675,-0.11556038023015341,0.15051225175308666,-2.1673625250511797,-1.1933181397356578,0.7549563741184775,2.118748533816379,-3.141592578838795,0.04276470684959733,0.001,0.001,0.0010000000154737334,0.010018087200098736,0.316
232,7159,0.015505697368578526,0.0,0.015503875968603238,2.7755575615628914e-13,1.8142881641489486e-06,-2.7755575615628914e-16,0.0,0.0,0.0,-4.163336342344337e-16,0.010002395401377219,0.001,0.001,0.001,0.009999147472937132,0.32
232,7160,0.39429715400023113,0.21978539209716624,0.2264525764153084,0.21522770568104752,0.13014264207885046,-1.193342694827932,-0.21918088280859094,0.6088357855794171,2.8001675912873027,-3.141592594071216,0.1076435222985184,0.001,0.001,0.012951018886513484,0.010014624130156814,0.196
232,7161,-0.1419096744494975,-0.19645514021000018,0.00520404310278999,-0.0063620050366754695,0.08605828896654266,-3.141592655457948,-3.14159270202978,-2.341914523585126,-1.9991953250116865,-1.5992837336695032,0.00999955768485712,0.0010000044556303092,0.0009999999481942181,0.001,0.028049852842864903,0.16
232,7162,0.5658989932851369,0.44794787820174464,-0.002082459559455069,0.05936901629002122,0.2577067693682076,-3.1415922691734597,-3.1414950379537476,-1.875214219584605,-1.2420250025820114,0.7060055521886055,0.010047490026640305,-0.13888723459781177,0.001,0.001,0.06788410673032019,0.16
232,7163,0.015503875974570687,0.015503875969852254,0.008930223151515355,1.3877787807814457e-13,0.015503875973460464,9.699180208988523e-09,0.0,0.0,0.0,9.6991803477664e-09,0.010000000004905764,0.001,0.001,0.001,0.010000000004919641,0.476
232,7164,0.5391256493698647,0.5179703078289354,-0.04191404124646689,0.024459480304423693,0.17750491869951215,-3.141590662985421,-3.141272754417056,-1.9663205817432519,-1.3334817738258835,-1.3333011471049732,0.01025624488100836,-0.09904670931181708,0.001000000000131839,0.001,0.04219559809097829,0.16
232,7165,0.16378772918885495,0.09650637032389064,0.3909137360410863,-0.09987899854272768,-0.06439193923799916,-2.2981259836923487,-1.4548314972999714,0.14759160117535897,1.3704934394854797,1.370797918767818,0.043156285301788604,0.001,0.001,0.001,0.019119728475212552,0.316
232,7166,-0.01550206502679008,-6.938885230289848e-13,2.7755575615628914e-13,1.3877874543988256e-13,1.8180233707365545e-06,-2.7755575615628914e-16,0.0,0.0,0.0,-5.551115123125783e-16,0.009997616293760626,0.001,0.001,0.001,0.010000854286835682,0.36
232,7167,0.053727642823076065,0.0536912751647468,0.05369127516752236,0.053691275167799916,0.053727642823076065,2.7755575615628914e-16,0.0,0.0,0.0,-5.551115123125783e-16,0.01014230482560381,0.001,0.001,0.001,0.010142304825687077,0.156
232,7168,-0.0630234335113888,-0.07407407407372664,-0.06349206349065546,-0.07407407407414297,-0.06302343351166635,1.429412144204889e-13,0.0,0.0,0.0,1.4307999229856705e-13,0.008880597661843305,0.001,0.001,0.001,0.008880597661843305,0.36
232,7169,0.07988580046768151,0.09328709502813709,0.07433746335037264,0.08314474017061424,0.2247841795644236,-3.141591244959628,-3.1415926534354024,-2.3403810739250748,-1.4970005262072168,0.18990401305348265,0.010265730719428668,0.001,0.00101607475341725,0.001,0.06226141187707206,0.436
232,7170,1.818022538069286e-06,0.015503875968880794,0.0,0.015503875969297127,1.8180226768471641e-06,2.7755575615628914e-16,0.0,0.0,0.0,1.3877787807814457e-16,0.010000854286835682,0.001,0.001,0.001,0.010000854286863438,0.16
232,7171,0.2131438064528656,0.09032563881881783,0.406110653679873,-0.10973552061149912,0.16433186742687492,-2.2981280557656665,-1.4970005262072168,0.3162677168043415,1.5391695551144622,-3.141591147252819,0.055296520541082715,0.001,0.001,0.001,0.010306573585309687,0.316
232,7172,1.8180229544029203e-06,2.775566235180271e-13,0.0,8.673617379884035e-19,1.8180232319586764e-06,0.0,0.0,0.0,0.0,2.7755575615628914e-16,0.01000085428684956,0.001,0.001,0.001,0.010000854286856499,0.28
232,7173,-0.01311761056504529,0.1910569643813672,0.20323594135723205,0.15012814991159845,0.15202000411463254,-3.1415926531629212,-0.8934804794613171,0.20175365665255496,1.1816999889649678,-3.141592653053248,0.010000117177836844,0.001,0.001,0.001,0.010000163697819154,0.236
232,7174,-0.0945012068836148,-0.21450120724136548,0.0125063337577615,-0.004373791104023216,0.12231255148625464,-3.1415926536448597,-3.1415926522182045,-2.324778563656438,-1.8221237390820801,-1.3821399619843822,0.009999985294402115,0.0010000000051764149,0.001000000000333067,0.001,0.03058451131525805,0.2
232,7175,-0.15828586545390314,-0.1949831268206669,-0.03460976637135561,-0.06842492505441941,-0.06749325867361936,-3.1415926551153226,-3.1415920551257908,-2.1616463212773716,-0.9511243813620474,0.20178188265650437,0.00999964170391966,0.0010002004961335844,0.001,0.001,0.007278388958181481,0.16
232,7176,0.03921942100025229,0.1493111559140553,0.05260120977453762,0.0743739388861127,0.16594435121258103,-3.14159265286066,-3.1415926535897927,-1.98871461557519,-0.8934804794613171,0.1439033401822693,0.010000190898199991,0.001,0.001,0.001,0.045967220909809176,0.356
232,7177,0.002765245190744501,0.0,0.0,0.0,0.002765245191854724,-2.7755575615628914e-16,0.0,0.0,0.0,5.551115123125783e-16,0.010176301302806624,0.001,0.001,0.001,0.010176301302855196,0.12
232,7178,-0.015502065026651302,-0.015503875969158365,-0.015503875969158365,1.3877874543988256e-13,-0.015502065026234968,1.3877787807814457e-16,0.0,0.0,0.0,1.3877787807814457e-16,0.009997616293767565,0.001,0.001,0.001,0.00999761629373981,0.16
232,7179,0.18521061615783588,0.05163168853390734,0.4016963006948035,-0.1091188818417778,-0.0381099015282738,-3.1415925685032677,-2.21616225950879,0.5114220598867107,1.923921082430959,3.09291217474377,0.010020905200695497,0.0010000008328060464,0.001,0.001,0.009957479326989606,0.356
232,7180,1.8180232319586764e-06,0.015503875968880794,1.3877787807814457e-13,8.673617379884035e-19,1.8180228156250422e-06,0.0,0.0,0.0,0.0,-1.3877787807814457e-16,0.010000854286863438,0.001,0.001,0.001,0.010000854286821804,0.12
232,7181,0.06715091510262064,0.0805369127507283,0.06711409396009674,0.08053691275045075,0.06715091510317575,0.0,0.0,0.0,0.0,2.7755575615628914e-16,0.01016680028097623,0.001,0.001,0.001,0.010166800280962352,0.396
232,7182,-0.015502065026512524,2.775566235180271e-13,-0.015503875969297143,2.775566235180271e-13,1.818022399291408e-06,0.0,0.0,0.0,0.0,-2.7755575615628914e-16,0.009997616293753687,0.001,0.001,0.001,0.010000854286863438,0.16
232,7183,0.04980484298382066,0.14081954752485762,0.0574769655130114,0.06986883697950227,0.18774317136759708,-3.1415926527997087,-3.1415926535897953,-1.98871461557519,-0.9511243813620474,0.20182134195114185,0.010000204989497564,0.001000000000006939,0.001,0.001,0.05785883242011685,0.396
232,7184,-0.20226445612962515,-0.20230148498044406,0.0019769986756391265,-0.00047337491191271655,-0.14306874798864427,-3.141592656065709,-3.1415124398404224,-2.2847946571562043,-2.1134350578694883,-2.1130439379192327,0.009999445306673972,0.0009294970281643602,0.001000000000784095,0.001,0.017967098075330173,0.16
232,7185,0.5663252393923599,0.5661894227991102,-0.0009383714609587901,0.06401790252027531,0.32639037848831787,-3.1415503830581692,-3.141376331764743,-2.087366930908654,-1.4548314972999714,-0.653656947372115,0.014680746237425947,-0.006977418421747926,0.00099999997528366,0.001,0.08772276856120313,0.16
232,7186,-0.16396670119306228,-0.01766824307845763,0.3370575780361534,-0.1244480089593782,-0.046398344125297634,-1.4682668767983573,-0.6554401939144174,0.8362512818908079,2.1019288977254877,-2.237700219012513,0.015252664607609224,0.001,0.001,0.0010000002917319164,0.0007379608760707424,0.436
232,7187,-0.1781593826429122,-0.17815958399462528,0.015472605801866735,-0.022063314443042617,0.11856793721504888,-3.1415926741487157,-3.14158850923101,-1.715995987254929,-1.1351973454147992,-0.5543493975902316,0.009995558067837597,0.0009997536060947212,0.001,0.001,0.03169120956420354,0.12
232,7188,0.09512841299867793,-0.1233588647481093,0.0491711319608793,-0.03991906768262989,0.10447825271292217,-3.1415926540234764,-3.141592653589793,-2.719096899081886,-2.138394999502287,-1.45196905896313,0.009999884420481787,0.001,0.007477134655749619,0.0010000000002220446,0.033979530003027926,0.356
232,7189,-0.19383304861318132,-0.19383396662468147,-0.045875028999677166,-0.09661358644039102,-0.20023712076003264,-3.141592799967795,-3.141589471300315,-2.118748533816363,-1.2907318654283644,-1.2898472609612943,0.0099705854551307,0.000999854416968259,0.000999999993859079,0.001,0.0179552001346142,0.12
232,7190,0.057040046386584636,0.10020058597389045,0.06873837648189224,0.08229230028257063,0.18918829179247554,-3.141592334612859,-3.1415926535852527,-2.237537213674632,-1.4238873178140787,1.2882282577613644,0.010066075068451375,0.001,0.0010000491426760396,0.001,0.06504071192960487,0.476
232,7191,0.5626710548137465,0.5263237554538563,-0.03668116268966423,0.026643598676046834,0.13466481256369028,-3.1415926495535316,-3.126702884625917,-1.6564761264382546,-0.9139178628624851,-0.9139355965489707,0.010001076253156006,0.00010130405354063977,0.001,0.001,0.04265342498210563,0.16
232,7192,-0.01550206502609619,-9.71444279185274e-13,-0.01550387596818692,-5.551106449508403e-13,-0.015502065026373746,4.163336342344337e-16,0.0,0.0,0.0,-4.163336342344337e-16,0.009997616293753687,0.001,0.001,0.001,0.009997616293760626,0.12
232,7193,0.1754799613755826,0.12992727309414046,0.3642345747481854,-0.0726189950848368,0.18201501451866764,-2.1673681046496505,-1.1446112768893044,0.21918088280858938,1.4855593168137782,-3.141592569995522,0.051068812635020076,0.001,0.001,0.001,0.010020538558007065,0.396
232,7194,-0.17309804712306406,-0.17309821437871784,0.01265254701584454,-0.02316049642962928,-0.10176568716481624,-3.1415926736742446,-3.1415894556187074,-1.715995987254929,-1.1351973454147992,-1.1347365657791588,0.009995642019877361,0.0009998515185922754,0.001,0.001,0.018016579880691636,0.16
232,7195,-0.1133291889042726,0.08835160066123335,0.06296417503711339,-0.022026870281394734,0.1063091576201074,-3.141592650243929,-3.1415926535897927,-2.6662307533671195,-2.24399475256412,1.2940944324704153,0.010000928815933853,0.001,0.008839228956599278,0.001000000038191672,0.04464853088826913,0.316
232,7196,1.8180230931807984e-06,0.01550387596915835,-4.163336342344337e-13,0.01550387596915835,1.8180236482923107e-06,2.7755575615628914e-16,0.0,0.0,0.0,0.0,0.010000854286863438,0.001,0.001,0.001,0.010000854286835682,0.12
232,7197,0.027311283859021873,0.12033361440896853,0.048527220880764325,0.05509886089030362,0.17561491421701103,-3.1415926003522405,-3.14159265358979,-2.1674553966626986,-1.2907318654283644,0.7063516187260068,0.010012111541332315,0.001,0.0010000000758837438,0.001,0.05314326360130299,0.436
232,7198,-0.11635155075143591,-0.21635155110999918,0.0023656610061086433,-0.0024848757373386876,-0.04908280673618379,-3.1415926536522436,-3.1415926722195953,-2.261946710584642,-2.010619298297459,-0.7538235505396599,0.009999983683801573,0.0010000003240394064,0.001,0.001,0.017905326591894886,0.16
232,7199,-0.17904580219901986,-0.17904668733237536,0.0183540128886273,-0.017164189577503302,-0.10051938311766656,-3.1415927907302805,-3.1415910674072394,-1.8265073567382517,-1.2907318654283644,-1.2903073252447406,0.009972122178941402,0.0009999626398225483,0.001,0.001,0.016546081605697507,0.16
232,7200,0.2241964392861217,0.1434183469538167,0.3948344068430923,-0.07623857055464012,-0.06520728301065681,-2.2981270998609578,-1.3704934394854804,-0.0632535433608683,1.2018173238564982,1.2019063033186996,0.05759493244475835,0.001,0.001,0.001,0.009152769657936868,0.356
232,7201,-1.8180226768462968e-06,-0.015503875969158365,-4.163327668726957e-13,-0.015503875969158365,-1.818023093179931e-06,4.163336342344337e-16,0.0,0.0,0.0,0.0,0.010000854286863438,0.001,0.001,0.001,0.010000854286828743,0.396
232,7202,0.07339451182170056,0.055045871560632814,0.05504587155896756,0.05504587155980015,0.055045887967508755,0.0,0.0,0.0,0.0,-5.551115123125783e-16,0.010000152452439527,0.001,0.001,0.001,0.010000118855522612,0.12
232,7203,0.0027652451912996124,0.0,0.0,0.0,0.0027652451910220566,-2.7755575615628914e-16,0.0,0.0,0.0,0.0,0.010176301302778868,0.001,0.001,0.001,0.01017630130282744,0.2
232,7204,-0.09174311926624099,-0.09174311926540832,-0.09174311926624099,-0.07339449541246543,-0.09174311926540832,6.098123395137378e-10,0.0,0.0,0.0,6.098120619579817e-10,0.010000000000027721,0.001,0.001,0.001,0.010000000000027721,0.12
232,7205,0.14009539718728903,0.030003645862585575,0.08422483633947823,0.08906771291802798,0.20590086457569687,-3.141592652907436,-3.141592652294728,-1.98871461557519,-0.9511243813620474,-0.9511390712848633,0.010000197302084358,0.0009999999999514278,0.001,0.001,0.07229318733607526,0.316
232,7206,0.015505700421136748,0.03100775193762284,0.015503875968742031,0.015503875969019571,0.015505700421969415,5.551115123125783e-16,0.0,0.0,0.0,1.3877787807814457e-16,0.010003941248119498,0.001,0.001,0.001,0.010003941248112559,0.2
232,7207,0.1380237765922546,0.09547087118039521,0.41486228427208033,-0.08980896299904147,-0.2179309455026569,-2.2374577431051166,-1.2882790018317858,0.29381801796163565,1.6499011777845682,1.6492929237913052,0.039791863369516005,0.001,0.001,0.001,0.02233759386996824,0.316
232,7208,0.5541175945372737,0.5366030247455637,-0.08075462991269648,-0.047396030691471254,-0.045765167165717886,-3.141592586522749,-3.1411607942771504,-1.780235837034216,-0.5759586531581289,-0.575986437318278,0.010008607032884987,0.060905603914826884,0.001,0.001,0.00568113898846395,0.32
232,7209,0.05754521598927423,0.05755395683454411,0.04316546762583872,0.05755395683537678,0.04315668179877285,2.7755575615628914e-16,0.0,0.0,0.0,-2.7755575615628914e-16,0.009957413940987437,0.001,0.001,0.001,0.009965052663461439,0.16
232,7210,0.0,0.0,0.0,0.0,0.0,0.0,0.0,0.0,0.0,0.0,0.009999999999999966,0.001,0.001,0.001,0.009999999999999966,0.316
232,7211,0.1278555289155647,-0.11674432018379369,0.036834227915933555,-0.051479331151484196,-0.06557710105170728,-3.1415927553919487,-3.1415926535897927,-2.8703749370668237,-2.2827399855112924,0.38379408894200917,0.009975790538501962,0.001,0.005206923644105314,0.0010002078073615963,0.014881104826881498,0.436
232,7212,-0.09472934349156653,-0.21472934385139889,0.029780474793954643,0.025613572112775332,0.1392344274385941,-3.141592653644935,-3.141592652563624,-2.261946710584642,-1.5079644737231006,-1.5078861442402562,0.009999985277589175,0.001000000002810252,0.001,0.001,0.041884273822988,0.12
232,7213,-0.016814894363715624,-0.290787496743956,-0.15448859261711007,-0.17162870041630263,-0.1280901041989561,-3.141592653589784,-3.141592440074915,0.21517757901299894,1.7644561479065963,3.055480705365268,0.009999999999999966,0.0010000013405596078,0.001,0.001,0.010299419274270262,0.12
