Numéro enregistrement,Numéro battement,Amplitude 1,Amplitude 2,Amplitude 3,Amplitude 4,Amplitude 5,Centre 1,Centre 2,Centre 3,Centre 4,Centre 5,Ecart-type 1,Ecart-type 2,Ecart-type 3,Ecart-type 4,Ecart-type 5,Période interpics
258,8137,-0.09304160387780674,0.5284415206641238,-1.1363235976644692,0.03054470421109113,0.0027262315133238855,-2.7501359933615577,0.4208363990790063,1.0667713368325962,1.7713588929800452,2.4173845266890344,0.02101147814686065,0.0009999999991950883,0.0010005089751398124,0.005350581723072678,0.014050122745152783,1.42
258,8138,0.07607267443403987,-0.03540692087406905,0.5742367379185256,-0.25400827313341223,-0.16805166924460996,-2.8109021931659735,-2.527352799663213,-1.6177652264115499,-0.3425044988739687,2.1495227495757794,0.013429713937491662,0.0033332291624600316,0.01815677731253806,0.000980106680258496,0.014312710569415145,0.544
258,8139,0.19749714444949099,0.4714300955107507,-1.068435670932082,0.026265332845808412,-0.8471002656338483,-2.903144235194704,1.554888961875025,1.961503813496804,2.712381218233587,-3.1420144431238786,0.01480050342963053,0.021351158250025953,0.07816626509449155,8.154212555078112e-05,0.0418526246027296,1.588
258,8140,-0.12755207615295605,0.06106289946320162,0.6578372994777718,-0.011625328132474414,-0.0034264102884209798,-2.9794469824813707,-2.726215991827007,-1.7227960996265934,-1.0437843254670727,2.594347161415675,0.01237949517978283,7.086121735122487e-05,0.030373259930978724,0.0030120301583714776,0.009844207256197125,0.516
258,8141,-0.002323057623016179,0.5037864545018421,-0.9653249798855409,0.03886906141766236,0.9902247025717658,-1.8258528363861932,-1.5370981035223372,-1.2980658427937941,-1.0305164399788669,0.31317418585441137,0.009998667291500852,0.05820274301117278,0.04975483929396586,0.0024094519760893187,0.1804077436909255,1.96
258,8142,-0.11970821531577991,0.5421679519963358,-1.158119377068321,0.02420121974627301,0.03412548679978719,1.0660428352071347,1.5585149224833126,1.9345065357776687,2.6375711988616017,0.5626108590602068,0.003975036754897956,0.060407634363045734,0.10618460050924773,-6.44079001392859e-05,0.008210066365314473,1.616
258,8143,-0.24238222463611658,0.06237086960654362,0.8093635225132098,-0.10023527190538055,-0.01274593921116608,-3.141820611139134,-2.9067891051822743,-1.5680024841788112,-0.4521545029467951,2.5543741867695093,0.0023854895872016217,0.012482163127338165,0.14666022198955747,0.0009786812615448772,0.008415265009682439,0.524
258,8144,-0.16088004175684742,0.5109810352834121,-1.1878481389042868,-0.04201598440642414,-0.05824669120999022,1.027551117025547,1.5591390561613194,1.9372540448783977,2.5866867826745663,2.5865048263881887,0.013478851180904706,0.03371008718890034,0.09757783789777942,0.010937115859809377,0.013046585123039868,1.616
258,8145,-0.14113406541722573,0.03774365383490759,0.804452489711727,-0.07802442983265151,-0.023940361140248348,-2.940677710926111,-2.610154491951477,-1.605690197070539,-0.6141460367873603,2.4211575547167232,0.0029097060973603908,0.00012806779711615947,0.09452937516855786,0.0009573458699803076,0.011927331274881282,0.516
258,8146,-0.24446625764378493,0.31292829555712237,-1.338899047829477,-0.23627709712476774,-0.06587361148017067,1.0220458840722508,1.5788786397018493,1.9708188868122385,2.7980707986402256,0.3607312233063974,0.003960250402338927,0.022053643736737558,0.1092411130345351,0.0029498764495390285,0.007126188402793407,1.612
258,8147,-0.36150550435922985,0.18863774550553847,0.9922919471198127,-0.1550476287476691,-0.1404438696991649,-3.141737840987352,-2.901640344833646,-1.5015682697330002,-0.07570102805251616,2.4098262876439813,0.00269920766127583,0.003096171425519648,0.20515170353590956,0.0009998168297571377,0.015004768171390471,0.516
258,8148,0.14418419395300636,0.6301823105563928,-1.1272363707170938,0.15952418223095285,-0.3868868869215473,-2.9299306634484052,1.4253494140191902,1.8480985807689194,2.7061698246733803,-3.141712167452476,0.003084202623408456,0.08440897918950045,0.10237000456424128,0.004901670403663753,0.0026239142674921814,1.476
258,8149,0.2739051020617978,-0.05555927067499484,0.8961177757587814,-0.24067217584223025,-0.06930770044143279,-3.141715443050724,-2.955932535484427,-1.5970527792482834,-0.16840331544719184,0.48177191076047016,0.0026440688825801577,-0.012632905403709902,0.1744359320521154,0.0009929169540863194,0.005823916458706473,0.536
258,8150,-0.19512092339841078,0.4286128673758854,-1.2348369646441493,-0.2024478198884127,-0.22380496124494992,1.171572037197282,1.5324995391080294,1.8946719766791027,2.488551882050804,2.488205735081886,0.013737289123367758,0.05284046855304113,0.10777209754934859,0.003368659210091862,0.0032002408973424803,1.628
258,8151,0.24634157537658727,0.6340687732197243,0.900683758801555,-0.03476324421386204,0.07823400481531441,-2.765236277193408,-2.241633217271367,-1.8922362421591739,-1.0561746853790406,2.682296912126359,0.03264591027432984,0.08703335255955033,0.1597728535792225,0.0031561529654628917,0.011083460510808952,0.528
258,8152,-0.10213150622340171,0.5068703109635677,-1.0411542773733018,0.0839273411794465,1.0032985631433813,-1.7081663534195293,-1.5292476998784936,-1.3377466066772754,-0.9191701547225918,0.11891327213469555,0.010001660578022277,0.0318491315721555,0.05621824564060098,0.002007975030165023,0.19268479324101667,2.204
258,8153,0.06823760240610459,0.6687548503175496,-1.0077081876861251,0.21285316266145796,1.2255821871542496,-1.8379386455574547,-1.5240530518509017,-1.2889759535240395,-0.9544226993295826,0.44788253896482944,0.010064147098272037,0.06761191601954618,0.07275326132545513,0.026644585476464193,0.24965760149381697,2.012
258,8154,-0.09671250021358241,0.5378803658699104,-1.1027008033083767,0.19245774554331416,-0.08004813017658644,1.0839778642021667,1.4765187078341828,1.8560558753540433,2.7734812021780897,0.3610040837760351,0.01324468938812935,0.07247499935293572,0.10807429279158132,0.005441599240276333,0.005579330823475255,1.52
258,8155,-0.4922489870923662,-0.04606634656025613,0.7470199636968334,-0.17239927281274647,-0.16093625602957048,-3.139021376292437,-2.801184436070905,-1.6037025403667828,-0.5921994737126177,2.317254523296812,-7.886000861657796e-05,0.01143329650975142,0.13991934900550626,0.003784495865437719,0.0032101374972154186,0.532
258,8156,0.1086097593292323,0.40709951048649384,-1.1101921500451755,0.07439560391116212,-0.5649666537467772,-2.957978726018351,1.5433264448139767,1.9006761991529504,2.7639157406912256,-3.1413937806550765,0.0026851213534334435,0.03864111537632454,0.09406781435027002,-0.011917895356789913,-0.03577388038139168,1.756
258,8157,-0.05217535090150359,0.6867107245215036,0.6559652434667467,-0.26941608358246133,-0.2691672360931799,-2.7249736416139103,-1.8459890486017256,-1.5213239861634131,-0.4686354883147183,-0.46871555319305747,0.003360819076665393,0.11875420330718825,0.07963876062788602,0.0009411822000500162,0.012891788570116814,0.572
258,8158,-0.06381706447073147,0.5834990356502365,-1.0760839663138007,0.08235920378664635,0.07406905937819484,-2.8807838852881322,1.5536339264734125,1.9448346409530757,2.489342042600476,2.489408217528504,0.013246730943373653,0.06573329847694892,0.11694129215800055,0.0034588004054887304,0.0034890918079771684,1.6
258,8159,0.7029136877473724,0.6939838973275289,-0.2378141376341676,-0.0374985353701668,-0.03464487119154706,-1.875100424708839,-1.7160443431674774,-0.8396907457701257,-0.2634246927282249,1.9220339986682966,0.08569865382789368,0.113608570351766,-0.010646585997213145,0.0011546964471521584,0.010843597095470626,0.516
258,8160,-0.11370085124467275,0.6065055687503502,-1.112424213808407,0.2554453178122517,1.2429588492898456,-1.5399958734383148,-1.3074389879668022,-1.0683997601002142,-0.3804696985316358,0.5977956788472591,0.009896617817768362,0.06256680120369973,0.0712213561820514,0.00011138716876535249,0.260091891032769,2.06
258,8161,-0.129027433424964,0.4493317961575183,-1.2735356587091977,-0.12195134021285238,-0.0940183556123472,0.8107920648280303,1.3304171145044634,1.7616116364136252,2.368478519902413,0.5067841062294575,0.013609561091508194,0.08426600349711089,0.12034050654578005,0.003739841496110507,0.012437930221615946,1.412
258,8162,0.1077459693912061,0.6514245881185319,0.6761404108437201,-0.1145983507481903,-0.04142325651774649,-2.6866432592857175,-1.9332419974546604,-1.7933815466763248,-1.0794686621733938,2.580061406532065,0.016229996943447858,0.11836315454054239,0.06937669719771819,0.0004129373825646479,0.0057924008099838,0.564
258,8163,-0.09340307020942587,0.5640986737774036,-1.036596355798507,0.06666118344239297,0.9844161754817659,-1.6817946908413406,-1.4595343274376331,-1.2375845228202025,-0.820715853828597,0.2897770048986381,0.009977118631332117,0.04814919079752006,0.06996032748920922,1.794060211401851e-05,0.21401625051011366,2.032
258,8164,-0.14031045558953956,0.6686367410291123,-1.1277850748149414,0.061835824024946216,-0.14053530967345298,1.2511004314116458,1.618573742015219,1.9857034327192653,2.752511810677054,1.117655320482162,0.012878223973178072,0.06885505515778671,0.11355369609747962,0.016095856856342496,0.012761497536612999,1.712
258,8165,-0.17583948594945034,-0.1769394518875065,0.8665213304092134,-0.12638130766203365,-0.12184822848335229,-3.1417159998904536,-3.1415926535891576,-1.6096714635392921,-0.581362554742856,-0.11188737908415894,0.0025484789006918595,0.001,0.19422043613231849,0.0009105942800337045,0.010495521946787502,0.548
258,8166,-0.2407879247102722,0.5034555626736121,-1.2973286303394165,-0.029002382459514676,-0.04161276608170042,1.209129635605183,1.641987312986798,2.0192104180811628,2.789460728268551,2.7893734000556325,0.0052879193284779795,0.09596197254734581,0.11664582191768424,0.010390664916203432,0.012287694440515596,1.7
258,8167,0.17048310302789624,0.1719364218483231,-0.008181649044076192,0.6304469128206718,0.6672373860423793,-3.141716709235608,-3.141592653588812,-2.8401026802571643,-1.5982504835715436,-1.4424393969654903,0.0029365465726610535,0.001,-6.966757609794314e-05,0.11270199894492558,0.12688939765477913,0.512
258,8168,-0.09121972431964163,0.658813147669344,-1.2360214444338715,0.23788661093152605,0.1663472467823304,0.8195489587664879,1.441325391412448,1.8523922971009028,2.756389848453051,0.4598319220169462,0.01419491297068416,0.1105648130360061,0.12907098408117826,0.04684929839112496,0.03577908222101828,1.488
258,8169,0.07010180870736919,0.3342607520103786,0.9483217204261128,-0.010715786482614236,0.055154452265597155,-3.1416260362065254,-2.6551231147754155,-0.6544984694973841,1.0845974637501112,1.0846460906700268,0.005247814860793729,0.06380306373003541,0.0010000018116480538,0.0009999890792079516,0.01846237860184504,0.536
