Numéro enregistrement,Numéro battement,Amplitude 1,Amplitude 2,Amplitude 3,Amplitude 4,Amplitude 5,Centre 1,Centre 2,Centre 3,Centre 4,Centre 5,Ecart-type 1,Ecart-type 2,Ecart-type 3,Ecart-type 4,Ecart-type 5,Période interpics
26,661,-0.06209420063662622,-0.3214827320146634,0.9678384382320336,-0.17150492170672926,-0.004928896919819472,-2.9417974046059565,-1.3511986391683761,-1.0283387863499325,-0.743778826981558,2.6864609052942274,0.010580896901672783,0.0029011223130271553,0.007151034541506744,0.0009440385875365546,0.0101138517904185,1.138
26,662,-0.012754859589001244,-0.14953741918480531,0.8659439875139879,-0.2242438920477038,-0.010645060369210589,-2.99955233026583,-0.2841039919411872,-0.029279116737971834,0.18117217508930084,2.907643950947455,0.009988699382465866,0.0008934072032819033,0.005823902500535945,0.002664973885601706,0.009990671056318385,1.496
26,663,-0.00915079883092975,-0.14255599963931528,0.9195467102194977,-0.2078968623008716,0.013023097271831343,-3.008085556647867,-0.237831511570342,0.0001863546831019221,0.21015353540512638,2.8245124029584687,0.010008413679787704,0.000909150318168627,0.006409076506499644,0.0026587383010924096,0.009988742357839126,1.512
26,664,0.06146339855521315,-0.18561721559896446,0.9022974607489557,-0.18821083874359956,0.012877089727050008,-2.999928203648655,-0.28335307746385385,-0.02877257354125534,0.18144291041377036,0.4083205665118508,0.009944644812602084,0.0008794952242492374,0.006323309372594131,0.0025841739834493367,0.009997708032811565,1.496
26,665,0.04013812685351817,-0.1795882334907854,0.8141786270084181,-0.208357108105763,-0.022301969059504708,-3.009662822240906,-0.26388818912626466,-0.028329414530385177,0.1896771295373293,2.67983736577726,0.010030591485195401,0.0008803255650936529,0.006943570316514003,0.0008978019758233417,0.010016813097623962,1.52
26,666,0.04979672337906246,-0.15590899372186875,0.7683069413974678,-0.22422085992158242,0.46643009345248193,-3.008439857424434,-0.21077659999554116,0.033795338496157616,0.2424159054885323,1.893757735142882,0.010042169162908328,0.002449725947660624,0.006972410368102263,0.0025931086729980945,0.011450503864961587,1.532
26,667,-0.01617743608191585,-0.1730204375212415,0.8449243950813763,-0.2194151665122997,0.5156201207513014,-3.0077301399721623,-0.28623895594602183,-0.042664359560671966,0.1691486351668018,1.8194796078237032,0.010015067170418375,0.0026597808358237297,0.017190748972897324,0.002662419747067425,0.015428681853325394,1.488
26,668,0.05571140367892838,-0.16551716055982374,0.9565659832945979,-0.15146717564632897,0.5649853362446491,-2.9997401609798104,-0.22948857491464197,0.009551230925276037,0.22948765550302608,1.8815830731012717,0.009949195056678335,0.0009038955653618556,0.02379440180429243,0.0009085650763969159,0.01918957345686524,1.516
26,669,-0.028170745235612086,-0.164155324021594,0.9936638502172824,-0.19321517181144332,0.5486559260863227,-2.990393596982229,-0.2688224440868831,-0.012187446271014982,0.19954652534028494,1.8313602345848323,0.010027073602766707,0.0008964039750762313,0.026463677474594174,0.002637063596869873,0.01981783126101993,1.496
26,670,-0.012929051572359058,-0.22278726415325678,0.9449104946454056,-0.2627694448958665,0.5179370342056184,-3.0145738359250753,-0.23426452500896355,0.013211616433660804,0.2251525629964714,1.9138155199391087,0.009986644723414635,0.0026844934144652356,0.0236947593795584,0.0026723897526657403,0.02006225149067859,1.496
26,671,-0.02184530579262244,-0.16018825773729345,0.9660844552120672,-0.25777227987728213,0.6165195498170584,-3.0140579967455596,-0.26784243850713596,-0.021659874228869086,0.2029540103215746,1.8750376920726661,0.00997591750068509,0.0009059152828072285,0.02622091914760656,0.004586307854248075,0.024613900363953736,1.472
26,672,0.014078132098886907,-0.19895771426873918,0.9524550111987642,-0.2807928201599643,0.6640170281741611,-2.981779060866355,-0.2790032483061153,-0.035638865546203685,0.1776440000489224,1.828952328647896,0.00998649201358416,0.0026619593824598726,0.026707632284429312,0.0055182977211452825,0.02741253911670121,1.484
26,673,-0.02323456039147672,-0.24290605247185507,1.035215681815218,-0.2474849628918461,0.6135038735397592,-2.8369027049225766,-0.29709762335217127,-0.060020136655319634,0.14984464930448071,1.7753298117617877,0.009982564817047025,0.003202484367455877,0.031155515146599692,0.005719447791332899,0.025000715440975006,1.504
26,674,0.05320377509010259,-0.27351912913244236,1.0713634830396472,-0.20875434631933398,0.5836112857352129,-1.0312643624639528,-0.30247219410377413,-0.0667330387531144,0.141123656105694,1.7020814448097359,0.009986921177057668,0.005486462803620943,0.0344825786526945,0.006327859660584663,0.026690611546629973,1.548
26,675,0.06313054685236086,-0.26929191744543,1.0235251779432541,-0.28095489953214214,0.5537810588385391,-0.9565420907805566,-0.252920253457975,-0.030340982963838567,0.1692215230055506,1.693552069220956,0.010297841132662173,0.0063648964605221,0.03421582645354005,0.00859467624148526,0.028791815193576497,1.608
26,676,0.11697027666459678,-0.24177365707857496,1.0306730221524125,-0.22156558583139865,0.5660220351906294,-0.9132903610124413,-0.22405205115682922,0.013272692708072735,0.21554783988017256,1.758322067339443,0.01115853975335551,0.006546887422397919,0.03409776223012944,0.00656080524441168,0.02838065620854848,1.626
26,677,0.12942889560640275,-0.1933809257598102,0.9961583385746361,-0.25051585536259147,0.5845543498823284,-0.9253122683445303,-0.23072976858903804,0.005224338759848464,0.2188392666322403,1.7900035465600785,0.012963088314646804,0.005871821392715017,0.03305847401370976,0.0072652806770628344,0.02990234073283389,1.608
26,678,0.0998640775946302,-0.24428153378497697,0.8669064233808501,-0.3202281142933869,-0.05162335863336192,0.282550712565111,1.4030253763149163,1.759045049570626,2.0923701144137783,2.6107261444995062,0.011022275410076691,0.005130112003408322,0.01036480978792305,0.0023988064037609026,0.01067821924416709,1.588
26,679,0.059754649106592374,-0.073422757908605,0.5353218395232087,0.006736381385669496,0.04355274318248769,-3.1413685845754626,-3.141592653589786,-1.3494205843071965,-0.32444659646631857,1.9709159272184644,0.010328122785378492,0.001,0.005388553346382096,0.0010000000070186218,0.01155979092119448,0.452
26,680,0.15568673902530175,-0.17258605519838202,0.8601061639187013,-0.19461135154549888,-0.2544787687752408,-0.5248963793712225,0.9079282915565485,1.369957639431489,1.7917977820135196,1.7942457295303726,0.013324848609495314,0.0010002871110020564,0.013668552095798573,0.0007578911352053102,0.017180468329768953,1.136
26,681,-0.03927966241777287,0.06707359955209255,0.4917011227983245,-0.04189406853402953,-0.053218500714008535,-3.141133086030736,-2.8521690347322974,-1.3547751936837997,0.024104291459765864,1.1660228019561094,0.010731783536432364,0.0013162579896206358,0.004712062988331174,0.0010000000001029038,0.011529155398933106,0.428
26,682,0.1526672407585087,-0.23339328998689168,1.0674039529216544,-0.13539460521549765,0.6231358184432819,-1.6149583397733784,-0.7578067494996265,-0.49626148576724893,-0.24665780599414383,1.6337252001556077,0.012391474265429662,0.007546876613450171,0.03342305050345549,0.0010845352843895087,0.03020815503839301,1.136
26,683,0.04308578469934127,-0.3520874941387097,0.7978030616346488,-0.21908373954520607,-0.29727698380401646,0.18597208416073557,1.3259033473009871,1.6867242725873397,2.0106293554970334,2.008485442261717,0.010016933298406137,0.008513929194450189,0.01652933044782874,0.00032864860960155057,0.0157272667537817,1.564
26,684,-0.04633940359264708,0.025823842386858076,0.4285836291487374,-0.04154640639789921,-0.1258645431488998,-3.1410136974701275,-2.880116779949391,-1.3883901237770753,-0.26179938779910156,0.5716157909912064,0.01092069914550328,0.0010542240534077976,0.004232639951302253,0.0010000000038655884,0.01258327310854397,0.46
26,685,0.04454463659528137,-0.2035651535931168,0.7306599850468389,-0.2325431713858502,-0.30992276730318113,-0.67547584727285,0.8059583223510296,1.2993669040351106,1.7270875137720691,1.7302405204582298,0.010912858780211003,0.0010000480317294272,0.001189593762439308,0.0008048002177992381,0.018513742220135847,1.076
26,686,-0.07395679210606579,0.055965400983843734,0.4986566298418785,-0.05705534078193217,-0.05312364119047286,-3.1411540207970265,-3.141592653589778,-1.4153208208658723,0.36911663031776654,1.796164008055655,0.010725948896945807,0.001,0.004999316994388271,0.000999999973765083,0.00897198830947822,0.452
26,687,0.0927353483892197,-0.16756875139157484,0.683301448229105,-0.29266669857791006,-0.06606676155053533,-0.6921354049877104,0.7936655111427537,1.2731624580889027,1.700860236776321,0.031714317604437395,0.010369665484347727,0.0010000285703068842,0.0010650675159090397,0.0037690611418603245,0.00974280570689867,1.08
26,688,-0.0011482039136183593,0.09695643347719007,0.456851400541724,-0.01798871666342758,0.06286702444289906,-3.1418816097156834,-3.141592653589789,-1.3131442702011489,-0.11635528346628865,1.1959458312099724,0.00951954347280663,0.001,0.0010558611362284911,0.0009999999999358846,0.008962383837056399,0.44
26,689,0.11639358687094489,-0.20545439496565698,0.920950463454038,-0.2323864061715665,0.5373016964610425,-1.6705137311451779,-0.8320158638010785,-0.5396060965716531,-0.28735171260141223,1.6113572141471857,0.01249152333271014,0.006566459043174438,0.027510688548822097,0.0011012056506127096,0.029061156716408416,1.072
26,690,0.09585271637291364,-0.22711266982876696,0.8247349116074784,-0.22024619184191077,-0.3323122606402174,0.03700386582820987,1.3061924538431398,1.6649200152180321,1.987624144683521,1.9876130196919652,0.012394022767925643,0.00493143056071543,0.017594701731817878,0.0004892474234620235,0.018367155822251825,1.508
26,691,-0.04476578413471824,0.022586869572485804,0.4406225221789119,-0.028709072975918046,0.06816047446118564,-3.142047903922605,-2.8060986747835304,-1.2935930642464983,0.016799960714383833,1.6952269028689855,0.009196851577906407,0.0009099338914129107,0.0010298228281751106,0.0009999999999952816,0.009923270352539008,0.452
26,692,0.15023902055920904,-0.2120386847977722,0.7746562802794252,-0.2129115333777861,-0.053271152620004904,-0.833018631377664,0.802472035924952,1.2976084332597835,1.73983468910042,-1.2815886747321077,0.01020930347200663,0.0010000147666490147,0.0010456143257318576,0.003461972300041757,0.011552269772722055,1.044
26,693,-0.41436641087293424,0.3770383423554854,0.4588230042284816,-0.08142946731461052,-0.03177119706102237,-3.1418347167973657,-3.141592653589793,-0.21298933244676832,2.5280714239399846,3.114964548992975,0.008788513197983917,0.001,0.001,0.0025448416518656556,0.009528748432893709,0.428
