Numéro enregistrement,Numéro battement,Amplitude 1,Amplitude 2,Amplitude 3,Amplitude 4,Amplitude 5,Centre 1,Centre 2,Centre 3,Centre 4,Centre 5,Ecart-type 1,Ecart-type 2,Ecart-type 3,Ecart-type 4,Ecart-type 5,Période interpics
268,8505,0.19308675769627318,-0.07487701089941469,0.5487420794902094,-0.20728479375398315,-0.24871625985120793,-1.1056223915615675,0.7982135239159764,1.2811191478758486,1.7198288259582977,1.7204730665170904,0.0520835051710041,0.0009965028841045212,0.09272450787794248,0.004613564396095364,0.055727352639624785,1.48
268,8506,-0.3158490469807489,0.08687565806174201,0.5021655122138285,-0.010034181682031245,-0.06016275685968773,-3.1416608585693573,-2.787055565749437,-1.5767027964094413,-0.7089975867251666,0.2444538004938235,0.002753263080395844,0.019134556496948722,0.10928275652751548,0.0009916745272929286,0.02162419593662282,0.512
268,8507,-0.17539002077303523,-0.07623511142901454,0.4340112135036338,-0.1745938912677947,-0.2430980824897744,-3.1416595876284488,1.176891044647498,1.5684342178319406,1.9345654766704024,1.9341496416703954,0.0029322456541959305,0.004145493950283002,0.0711704073756936,0.0072320660930599336,0.060006550764824466,1.544
268,8508,0.031418989083255085,0.11766443039086143,0.5119742428812035,0.09267686393952738,0.11401897216229458,-3.141654410949737,-2.739578316847986,-1.6709743715170642,-0.7293765625212378,1.763490871520934,0.006454903448912776,0.026558780593272484,0.14303980460840424,0.01501230741748804,0.030120766854397886,0.516
268,8509,-0.07766498749367026,-0.10627471832631692,0.38237495540454614,-0.21884278385136777,0.48080220481727826,-3.082525771950887,-1.6240471786489725,-1.497617836086773,-1.3713309322749776,-0.5255681195700773,0.017062441247228353,0.0038383410577495537,0.033696800084934565,0.023529101056094345,0.09698342042449268,1.672
268,8510,0.626015764359599,-0.07407714384451615,0.48566635623653776,-0.185621715276412,-0.009434532420384324,-2.0079121650986176,2.3239598812940905,2.5289832645706345,2.6845476872930947,2.903116569999929,0.14626356208172586,0.01594431403540468,0.03758052992883836,0.0390057448064672,0.009696952455781295,4.688
268,8511,-0.05069637843835329,0.06759667449358485,0.5070178938168136,-0.0004038370193999849,0.09520481288329163,-3.034423283900204,-2.6182958737945077,-1.666242194133042,-0.6425984963408533,2.7843669203494508,0.010372082131067757,0.009004423098048612,0.14719205063798665,0.0010003497121238427,0.007031750237071867,0.476
268,8512,0.008177069004256108,-0.1363500034539574,0.46659225170522256,-0.29614658440692615,0.019630499796454138,-3.0126461867069607,1.2660893980506454,1.6651227144283995,2.0156228677581396,2.7899154082800917,0.009176218022332828,0.02484487517256144,0.06652412406591465,0.06142823509128806,0.006976522053944409,1.636
268,8513,-0.10638920988219558,0.02806312785205156,0.5001287866127153,-0.021146495799365162,-0.12999830003223153,-3.14131589762299,-2.6987145358897044,-1.370098710590347,-0.3598299955260721,1.2180907849826403,0.027775541532642757,0.013013186404848099,0.11474140854633622,0.0010000398087604548,0.03724016814245614,0.508
268,8514,-0.022739038915733395,-0.041373438258354704,0.3420673368716547,-0.20382065114763687,-0.22288042220656373,-0.22944358799835796,0.9180910248717611,1.521204723894426,1.9931489012637993,1.9941074501467626,0.009215721687390694,0.0009903113869006988,0.06239858569493776,0.005392506479811852,0.061876609547842146,1.308
268,8515,0.26034229296024014,0.4177697796265605,0.31603601983298246,0.007447246585644837,-0.15577854201136201,-2.2879372870952857,-1.5749693610698845,-1.4675046895404038,-0.7195826194193231,2.6736811037678976,0.054697946640658086,0.07785771357156263,0.03889195635844212,0.0010165892967349257,0.039188970231089394,0.444
268,8516,0.06323496373559902,-0.1287928317711873,0.35863482805109087,-0.17565097108006492,0.47921834329921115,-3.0169797521998287,-1.990519839259379,-1.4340540785170441,-1.1547870141771548,1.0889751777758763,0.019112142773201585,0.030980176797221586,0.07534819988291767,0.002371171842651231,0.13883100876998064,1.704
268,8517,-0.09870357049987913,-0.04940833008135593,0.10848640579221455,-0.07650502862933073,0.02292182351236928,-3.1413132634198027,-3.1415926535896044,-2.8753823215094276,-2.3023346464083327,-0.5831763311890928,0.029626928198526727,0.001,0.005291082358075254,0.01278181196088285,0.008535007488288627,0.916
268,8518,0.07233623709272968,0.14428285172714572,-0.06938696332583849,0.05604369791156055,0.03368297268881731,-3.1415929710297332,-3.1415926535897927,-2.508576511249432,-1.1978734578435901,0.42926991332147213,0.009934019289063413,0.001,0.009583459617246545,0.001,0.013295470764837182,0.312
268,8519,0.01878294707186034,0.0,0.0,0.0,0.018782947070750115,0.0,0.0,0.0,0.0,2.7755575615628914e-16,0.013270939523729276,0.001,0.001,0.001,0.013270939523555804,0.244
268,8520,-0.03669724770644078,-0.03669724770644084,-0.03669724770616323,-0.03669724770657962,-0.01834862385308167,-3.4330746578881133e-10,0.0,0.0,0.0,-2.0239046549797024e-10,0.010000000000027721,0.001,0.001,0.001,0.010000000000055477,0.276
268,8521,0.030536955440557678,0.015267175572930558,0.015267175572375447,0.015267175572653002,0.015269769013809276,-2.7755575615628914e-16,0.0,0.0,0.0,0.0,0.010007232682508428,0.001,0.001,0.001,0.010003254138701524,0.16
268,8522,-0.06530457290723765,0.0,0.0,0.0,-0.06530457290751521,-1.720347475586692e-10,0.0,0.0,0.0,-1.720347475586692e-10,0.021588102754311854,0.001,0.001,0.001,0.021588102754353487,0.324
268,8523,-0.02902572073266476,-0.08852577017135804,0.0918545050396856,-0.06183091276945999,-0.0027397954293635267,-3.1416076909090034,-3.141592653589786,-2.584602265217527,-2.319578898930736,0.19889539979662274,0.0074374804427787345,0.001,0.007465012595734134,0.008634370229034355,0.01009330868279419,0.156
268,8524,0.20506131915976106,0.2051910972606657,-0.25332223000467347,-0.13527887377659092,-0.18727689132572442,-3.141615862421742,-3.1415926532629452,-2.41737495362713,-1.9502398738924425,2.2307271493880445,0.005643804997620686,0.001,0.051259770380818616,0.024614244449354776,0.04382611583558489,0.792
268,8525,0.026451863018583988,0.02649006622473804,0.02649006622501565,0.026490066225293152,0.013205815272143706,-1.3877787807814457e-16,0.0,-2.7755575615628914e-16,1.3877787807814457e-16,-2.7755575615628914e-16,0.009912404364109352,0.001,0.001,0.001,0.009947083389809054,0.356
268,8526,0.370004057925593,0.4519494355378185,-0.13164835362053082,0.0031516197667482244,-0.1558237485164094,-3.141601390697774,-1.0360571517157826,-0.03342119844244426,0.8021087626186705,1.202956885100849,0.007950473922606017,0.001,0.001,0.001,0.038824633025011115,0.248
268,8527,0.08405069272507396,0.0,0.0,0.0,0.08405069272521273,-8.273648928955323e-05,0.0,0.0,0.0,-8.273648928941445e-05,0.024813606912487934,0.001,0.001,0.001,0.024813606912529568,0.504
268,8528,0.21657572784415285,0.21751119310857067,-0.27396304413137884,-0.2474137726195093,-0.24630842847198334,-3.1417230018142512,-3.141592653586592,-2.734753884916332,-2.4723857217124023,0.4001694470004838,0.002982858913442837,0.001,0.0529568173138197,0.044849438583862325,0.04963564376267832,0.124
268,8529,0.05053117314350656,-0.1313937357318418,0.43721479012210884,-0.23703716570452327,-0.11244041589416758,-2.7467164850411216,1.2351838584330688,1.6417207520213681,1.990451200525898,2.3631408619393115,0.0032210263649014147,0.031104792924753176,0.07560557121592024,0.009232552867398042,0.030146095750111356,1.792
268,8530,0.20279136083852797,0.2078936777562491,0.14815634847620857,0.4320551502382313,0.4192477191710139,-3.1417713197174213,-3.1415926535891288,-2.7353126844128988,-1.8826160662965155,-1.7538591884260226,0.004473770452921981,0.001,0.03667754912394904,0.061749940276935124,0.07714523948117911,0.552
268,8531,0.08065217175863984,-0.10482128995558004,0.471951392302265,-0.2910630646610522,-0.16723081951239038,0.10039941059638828,1.4310624638149536,1.7590080957413694,2.0749266262881196,2.5397127396086243,0.023204753117210236,0.0002653247150552181,0.07338650094498762,0.07978384048205447,0.03999740480306298,1.86
268,8532,-0.19195392179645945,0.47850591434360856,0.4938706819854114,0.029546671814779123,0.061270760221305155,-3.141692439082327,-1.8933639265729711,-1.7372972110418727,-0.8696188513880636,-0.23903910210644763,0.002577172432915701,0.08160250463223094,0.06373143039303712,0.0061264679942278355,0.018385346642547616,0.52
268,8533,0.09916608178018418,-0.13830882162978134,0.5286306603212828,-0.20332102138747943,-0.18252686863508083,-2.8361331183177687,1.407130421676889,1.7679440693952337,2.0939387964520244,2.093910651531385,0.02828111378555582,0.03399795686012922,0.06134354878468882,0.04292106509814254,0.041267990258199896,1.792
268,8534,-0.19759925477124,0.14746035537777485,0.5769935675896622,0.03216189400304396,0.016121581000471737,-3.1417129803528887,-2.5831835962231016,-1.7561711016659354,-0.9289005365731131,2.507906129806279,0.005265951811047877,0.03342156701270539,0.16334944132924303,0.0037054594582062667,0.010972744859793727,0.512
268,8535,0.07335332916510752,-0.0893097270178447,0.5364369688491384,-0.33869568303569697,0.05487910306471184,0.35148043293267595,1.8521812422808852,2.2170477633195786,2.56741801888286,0.15244632247040255,0.006833916847398224,0.018824891073749114,0.06705483153432351,0.0545709144218675,0.01046297629321259,1.828
268,8536,-0.15413907241562877,0.031906543008523205,-0.0645452273418923,-0.09411838278053887,-0.2336295584849158,-3.141592695558608,-3.1415926535895045,-1.485559316813778,-0.6575426484257707,-0.6574590310058661,0.009989040284704943,0.001,0.001,0.001,0.07838920880850729,0.4
268,8537,-0.14306244432321794,-0.042356308315257,0.33898230091828513,-0.038824460150047764,-0.16264785823899355,-3.1415891767251383,-3.1415926535732313,-1.0867144399209976,1.6004339933381972,3.1020828739679054,0.010654269263981843,0.001,0.001,0.001,0.010108409409067777,0.116
268,8538,-0.025320620229117234,-0.06811462997591661,0.03082872908519472,0.04951191169840264,0.10512285129376149,-3.1415296173482976,-3.1415926535897434,-2.702093499268548,-1.4765485471872026,2.1359779508429426,0.01674765472293001,0.001,-7.431092735210587e-06,0.0010000000003122502,0.009930820392207674,0.436
268,8539,0.0,0.0,0.0,0.0,0.0,0.0,0.0,0.0,0.0,0.0,0.009999999999999966,0.001,0.001,0.001,0.009999999999999966,0.364
268,8540,0.0,0.0,0.0,0.0,0.0,0.0,0.0,0.0,0.0,0.0,0.009999999999999966,0.001,0.001,0.001,0.009999999999999966,0.548
268,8541,-0.14317522148897965,0.0009689374856166316,0.404578574359376,-0.16329516361825516,0.08159469664907198,-3.1415926526001847,-3.1415926535336895,-0.6509606399330203,1.1604080972719055,3.08499937839683,0.01000029124276598,0.001,0.001,0.001,0.009969333372915013,0.204
268,8542,-0.05041993414667256,-0.033613445378222084,-0.050420168067749516,-0.03361344537794453,-0.03361321134570655,-2.7755575615628914e-16,0.0,0.0,0.0,-5.551115123125783e-16,0.009998706000876835,0.001,0.001,0.001,0.009999127520813845,0.24
268,8543,0.015420645659708347,0.0,0.0,0.0,0.01542064566081857,-2.7755575615628914e-16,0.0,0.0,0.0,4.163336342344337e-16,0.01255366535153314,0.001,0.001,0.001,0.012553665351852329,0.236
268,8544,0.0,0.0,0.0,0.0,0.0,0.0,0.0,0.0,0.0,0.0,0.009999999999999966,0.001,0.001,0.001,0.009999999999999966,0.236
268,8545,0.0,0.0,0.0,0.0,0.0,0.0,0.0,0.0,0.0,0.0,0.009999999999999966,0.001,0.001,0.001,0.009999999999999966,0.284
268,8546,-0.04255213045326054,0.0,0.0,0.0,-0.03644828663273978,-5.8658791850518796e-05,0.0,0.0,0.0,-6.767468458776514e-05,0.017483424443857608,0.001,0.001,0.001,0.01626778847114676,0.316
268,8547,-2.7755575615628914e-12,0.0,0.0,0.0,-2.7755575615628914e-12,-9.159339953157541e-15,0.0,0.0,0.0,-9.159339953157541e-15,0.009999999999999966,0.001,0.001,0.001,0.009999999999999966,0.236
268,8548,-0.011631356163660699,-0.1293529648180527,0.022757357364697365,-0.0021350107001697604,0.09461748661177731,-3.141595091696916,-3.1415926535897927,-2.402394647961157,-2.032795246439655,0.40583491189708787,0.009539922631346077,0.001,0.0008985180741789548,0.001000001182602627,0.01290306081394267,0.396
268,8549,-0.18587140145745631,-0.05337911611423042,0.3898863606299543,-0.1921845461447375,-0.1556901881910341,-2.2559479085658145,-1.5391695551144622,-0.10542257226811369,1.1596482949492524,-3.1415912964891604,0.038164157069868185,0.001,0.001,0.001,0.01027872630893596,0.284
268,8550,-0.03818270177424754,0.0,0.0,0.0,-0.03818270177161076,1.4512655521770057e-08,0.0,0.0,0.0,1.4512655382992179e-08,0.01715241824513626,0.001,0.001,0.001,0.017152418244601966,0.396
268,8551,0.2897014374802025,-0.1600097867396825,0.43839158053946753,-0.25855979958050596,-0.28802116202625444,-2.846282539121197,2.25561528395975,2.4577545467981725,2.6316043085463456,2.631821055427632,0.07344252351589425,-0.0074008760319123484,0.04888381761010327,0.050485546403924095,0.012945389808411945,0.116
268,8552,0.587092695028431,-0.018326487823315203,0.5547690807322141,-0.14237814245029393,0.5843023929209503,-2.5388761621820892,1.2494890886719943,1.407944602939216,1.5443933393316185,2.5299425568644933,0.10127131041189455,0.0014962894246049454,0.047858448018376284,-0.008376221848121649,0.12708362582815716,4.142
