Numéro enregistrement,Numéro battement,Amplitude 1,Amplitude 2,Amplitude 3,Amplitude 4,Amplitude 5,Centre 1,Centre 2,Centre 3,Centre 4,Centre 5,Ecart-type 1,Ecart-type 2,Ecart-type 3,Ecart-type 4,Ecart-type 5,Période interpics
269,8553,-0.16666583380859146,-0.2015312644256599,0.4345967483685875,-0.5419678261727062,-0.08222662878096093,-2.9359252216439655,-1.3317080780180355,-1.0230445583277226,-0.7040272221212758,0.4575327176451389,0.012799904988803857,-0.0004210653086488278,0.012413665850723532,0.015131437098885397,0.007863890278670916,1.2
269,8554,0.22707406782171047,-0.2798778807227184,0.8085131120726482,-0.7075076198854624,-0.7074601207885844,-2.9095239477699844,1.3343974000141987,1.7629383203946725,2.1533635081887414,2.1533681664462687,0.002925998943904532,0.003592215493035791,0.013935198598129625,-0.03849035188555148,0.016731267010007253,1.612
269,8555,1.6309082105853556,1.6377613312962702,-0.0662490893741717,0.9571060737106699,0.9557735359361023,-3.141592613347782,-3.139896586205577,-2.868894341978957,-1.5632160814234932,-1.5634854616053586,-0.0015718040502588175,-5.6822306610971576e-05,0.0033191962739144067,0.021038228936591907,0.022336104515342504,0.448
269,8556,-0.10587227056036194,-0.05785615972309763,0.7280621428599229,-0.5699584432929394,-0.043220458513745376,-2.8546947982880004,1.0615428210794629,1.506243053090996,1.9364948024120148,2.56773088329653,0.016408240974253835,0.0009604156983856741,-0.00020160116440226614,0.0003581293569744313,0.004530994774033499,1.304
269,8557,1.700567049264529,1.7101694096780033,-0.04320874117063536,0.7274559795770481,-0.15561440920319766,-3.144648995279324,-3.141590510601876,-2.9762654093357472,-2.222707845820434,2.131649199282323,-0.011683415762308044,0.0009999445209342142,0.008563094756468654,-0.03282447096039729,0.010702130910912279,0.448
269,8558,-1.717585644901177,-1.7272194103843073,0.058731392312486926,-0.03133692255227333,0.8072501489406152,-3.144008914774779,-3.1415865785500454,-2.976172348222204,-2.8354616458178055,2.1895948791337836,-0.005238881634738212,0.0009995569557320607,-0.009319892747801003,0.008199478244845909,0.01575203842650973,2.588
269,8559,1.0269758128215187,1.0268793911031313,-0.0969351113307175,0.7556818195912693,0.06746638353307144,-3.141187334580989,-3.14152386068013,-2.8463425315491615,-1.4190485262319437,2.0914498715102576,0.0033488922839452957,0.0009543453842731911,-0.017588341338721128,0.0007998758465012091,0.005193602312593132,0.448
269,8560,0.19610004786196225,-0.18019396129989018,0.7862666535310091,-0.6783786292486653,-0.6769510065519395,-2.8271301467156533,0.8267349093211808,1.3395974360313812,1.8346761897499109,1.834686524804785,0.004267985769763622,0.0009995245166806157,0.0006020842654154162,-0.03493583396091494,0.03507277743046825,1.084
269,8561,-0.8766983788978747,0.25637162061311725,0.9563430090239292,0.13813545756369522,0.13462308680948415,-3.1415926535933463,-2.8303494939188796,-1.3249742963528464,0.37633661996154855,1.8817239313835672,0.0021233761245864438,0.004161967569192968,0.06636756331729239,0.0009999992058574705,0.01844547523332072,0.436
269,8562,0.0603179764567129,-0.1538654627709786,0.6492482340677168,-0.5966511948265112,-0.5964778379332263,-2.799701656587767,0.7162180141608729,1.2852827298908025,1.7742727804012541,1.7742838304619217,0.0046587030010269885,0.0010001507532987333,0.022249261282885173,0.00018628264988784695,0.021223544674365814,1.1
269,8563,0.18117397467877053,0.18112386285616988,0.7437008590910374,-0.10832807571540833,-0.10406890291041788,-2.8117750944217956,-2.481952326627364,-1.2945672373477337,0.28859775032980206,2.267580824399743,0.019612457156527027,-0.01962927708407214,0.0008737300589968238,0.0009999998911426325,0.01826681921617388,0.444
269,8564,-0.034916010734618586,-0.025356609026752557,0.634624189341314,-0.42670399491757355,0.0050037496003577,-2.8126389230386035,0.542788259519982,1.2665061113386542,1.7597236319215976,2.3192001230410444,0.015960488289602462,0.0010000014837575613,0.00089230202196433,0.017540466141079514,0.012805612508038867,1.076
269,8565,1.1532854306551699,1.1534765698773974,-0.09545227772151801,0.6283856174254036,-0.059056273649719236,-3.1392208122168626,-3.1324403311440694,-2.7828842468292176,-1.2966751277091788,2.629293803625305,0.006706523249623272,-0.0001309310809504146,0.004623439634947728,0.014006784001623468,0.005056450356245568,0.452
269,8566,-0.015532444634262677,0.016655583356863363,0.5391725544423017,-0.44501233197967627,-0.08492325029253656,-2.835931714034628,0.5434106211613603,1.1717292119421687,1.7142920784709172,2.3602123100272827,0.014662521316756117,0.0010000002849387393,0.0009631447884507197,0.01764759949204786,0.005141150783084523,1.024
269,8567,1.0472703746800294,1.052243372202697,-0.12491376935785485,0.5439774854693257,0.5435920635482804,-3.139965652115954,-3.141426873282625,-2.8334488242378573,-1.3097104360438618,-1.3097607393056945,-0.028730024759292552,-0.005190037985298602,-0.01925041594616584,0.0009124339307154942,0.02149745506734412,0.456
269,8568,0.16968844239573053,-0.018944391657315537,0.7668467181548133,-0.4445478973097242,-0.4549742376086322,-2.8142550948007177,0.6111043243971719,1.1963263772978998,1.7286638924353515,1.7280054907609288,0.004516999229976507,0.0009999994492738687,0.0272934125921932,0.010092483803374566,0.0025444379759165065,1.012
269,8569,1.0558543607596114,1.124708832973442,-0.01819328454636887,0.6267738976875773,-0.02540398329924177,-3.1415462074457716,-3.141214654835013,-2.8197511643744866,-1.36914905765148,2.3199652756338667,-0.35706709464745523,0.0006340123433191671,8.910258050731189e-05,0.02305857935227984,0.014858887535319455,0.448
269,8570,-0.019030497456485527,-0.07616825440418222,0.7603586719399653,-0.49471726484522727,0.05094376008962997,-2.7880707297378704,0.7633025631032213,1.2938779898894084,1.7920021805571171,2.530874056002654,0.014454425712951925,0.0009997942123353134,0.00047125487115284864,-0.02037691763542948,0.004924817870611818,1.112
269,8571,0.026385898317382576,0.04819277108381042,0.04819277108714109,0.048192771078259304,0.02638589831183146,2.220446049250313e-15,0.0,0.0,0.0,0.0,0.006500884511030335,0.001,0.001,0.001,0.006500884512085047,0.444
269,8572,-0.36236391492586295,-0.09275173701353413,0.7369339328164933,-0.4482858532814208,0.0032057859611751296,-2.854143134655084,0.8911248488317596,1.4042197573771331,1.858268650036088,2.3864101659614976,0.0035988909650630364,0.0009944645064919868,0.03930853381042731,0.0005492129658547524,0.011915786344675007,1.216
269,8573,1.0892636672219995,1.0892645337588418,-0.14306922895355684,0.7556832469149969,0.7553546546860149,-3.1415926652473036,-3.141566452382004,-2.882844935919031,-1.5884314424433532,-1.5884120409041758,0.002125829236799807,0.0009923114028521631,-0.016413797802179345,0.019278563898244117,0.027024001846388524,0.456
269,8574,0.06888440796460804,-0.009247443018348074,0.7118760113185884,-0.39176032986529846,-0.39356442612212844,-2.811576350421763,0.8320199701549622,1.4773082176498122,1.9367244099896546,1.9366147587546139,0.00395384031164458,0.0010010323673027557,0.02814384559798777,-0.018120455529930697,0.0182997530996276,1.292
269,8575,0.031165995900694902,0.05012531328119079,0.050125313282301014,0.05012531328452146,0.03116599590402557,1.1102230246251565e-15,0.0,0.0,0.0,0.0,0.006066229596303176,0.001,0.001,0.001,0.006066229595914598,0.456
269,8576,0.9458578155493269,-0.04434030258489484,0.5678551577871106,-0.4617355347666058,-0.017149954820599993,-3.141592653523606,0.8770943948225551,1.3554114631939744,1.818169643963341,2.392091318101805,0.0017708879777489257,0.0010006231602456275,0.03237957466414772,0.02015795973933543,0.014056401162466604,1.14
269,8577,0.9644969507335595,0.9644973561092924,-0.18815239723965885,0.547548744309426,0.5472400775605988,-3.1415926297743915,-3.141575785289258,-2.8470822269950906,-1.3253596091151545,-1.3254012233466386,0.0013787917869556472,0.0009967901095909717,-0.019465989725604323,0.000863335027661116,0.020674425773848915,0.44
269,8578,-0.09227334675687877,-0.09312886838593964,0.5991852619723113,-0.4858132107465325,1.078640488286401,-2.81090844087172,0.6779226252709825,1.3717446551356212,1.9017975309983184,-3.1415256147538644,0.01823632029278708,0.0009999680310169836,0.022761924459240412,0.021068329352584958,-0.12023388217459076,1.096
269,8579,1.321128706995293,1.3261458013108445,-0.08568259830587616,0.15732796999841078,-0.13732761362455528,-3.141564838127789,-3.1385598091453044,-2.8422451820403256,-2.542808416363997,2.291258958128445,-0.0011416419698584528,0.00024897628911235627,0.004056523082023418,0.004486598157964603,0.018134038181006874,0.424
269,8580,0.24048971697365004,-0.0361228364731196,0.7275029656373682,-0.45897853075872774,-0.44801710207732803,-2.845743961604151,0.9175938912959511,1.3994121774899921,1.880681378721705,1.881393643735504,0.0039019850065391557,0.0010015535172592785,0.026824254106354695,0.01954765668052316,0.0248199687271533,1.172
269,8581,-0.02817435450497286,-0.04889975549593468,-0.04889975550481646,-0.04889975550481646,-0.02817435450053197,0.0,0.0,0.0,0.0,-1.1102230246251565e-15,0.006315825468884395,0.001,0.001,0.001,0.006315825469272973,0.444
269,8582,0.11673926325789794,-0.03708289044996054,0.8253859574353785,-0.46335721032792737,0.021392473187072176,-2.5350626123616884,0.9486987753903555,1.4619872282306916,1.9443974588086612,0.7308824303573038,0.017713617878379863,0.0009978270608380626,0.02766836470621714,-0.019667831516940626,0.008024651154393504,1.192
269,8583,1.1456046818307966,1.2126242964376635,-0.03494785638208887,0.23016936030719087,-0.08407266479859664,-3.1413018263354138,-3.1414224423251405,-2.8414599129589275,-2.3593842918824475,2.2695109857949074,-0.35620259581676694,-0.0037162470223072184,0.003557636060496191,0.004399416181493196,0.004607935413337703,0.424
269,8584,-0.1547135304522312,-0.022828189009169997,0.6612180122504744,-0.36695585482589343,-0.36855064827874606,-2.844521301896268,0.972928231322356,1.477713963048022,1.9368172547015807,1.936634797719792,0.017598859305790727,0.0009953191788804041,0.03087115216801506,0.004443331754837674,0.011864279848440277,1.248
269,8585,0.46647636247521856,-0.36999039583502835,0.04822134838582406,-0.8208624435546407,-0.3789237866146084,-2.2350238251544203,1.3966822469218478,1.591128579092083,1.823546629676079,2.6098815449297934,-0.0006069533835629057,-0.01023932637153716,0.0024662442791579717,0.035882199110297795,0.010499934631081854,0.44
269,8586,1.3182881158584516,1.3278879474303453,-0.029981570156245363,0.061874961649464044,0.18744967189837186,-3.1422372724878063,-3.142741948788466,-3.025770434723543,-2.922111310642263,0.015235684648183333,0.007715775410578286,-0.010523148854386545,0.0011470493705135745,0.0014785401013229773,0.010000051000315048,2.912
269,8587,-0.7013058974141186,-0.1405158016900302,0.5891332810596142,-0.483407659958247,-0.16589652235319086,-3.141692275608169,0.824389549621521,1.3297325991329714,1.7740750753539098,0.6151911742298206,0.003094606196675214,0.0010069208298536516,-0.018438514970382406,0.030245683120737714,0.005120883585164604,1.212
269,8588,0.028174354501642178,0.048899755499265445,0.04889975550037567,0.04889975550592678,0.028174354499421732,0.0,0.0,0.0,0.0,0.0,0.006315825469050928,0.001,0.001,0.001,0.006315825469439506,0.48
269,8589,-0.9919090936134258,-0.16615080256626633,0.5482764379271693,-0.4908110119718826,-0.10618800771030312,-3.14159265280512,0.775605170123262,1.3394396822907635,1.8244052091268983,2.373842018474015,0.001584921860576783,0.0009989250764054205,0.018324930065287792,0.031675929511891944,0.01757811096696591,1.16
269,8590,0.012740735115812633,0.04264392323816149,0.042643923243712606,0.04264392324926372,0.012740735116922856,0.0,0.0,0.0,0.0,0.0,0.008525242880187368,0.001,0.001,0.001,0.008525242880131857,0.444
269,8591,0.08648505062354915,-0.1093796269945255,0.6366012265954069,-0.4760782956393021,-0.4779979521613779,-2.8340117578176587,1.1363210824877816,1.5777692433316144,2.0320056173875374,2.031694587170767,0.0035711477773159167,0.0008501232899572609,0.01968950886102505,0.01712179366480837,0.02767598197424669,1.428
269,8592,0.028772466638682374,0.049140049139251345,0.04914004913869623,0.0491400491420269,0.02877246662980059,2.7755575615628914e-15,0.0,0.0,0.0,1.1102230246251565e-15,0.006259898193989833,0.001,0.001,0.001,0.006259898194766989,0.452
269,8593,-0.2846972025896184,-0.1723371463572371,0.6668392621254794,-0.49356146356992764,0.07129810613083995,-2.8521304310808406,0.8291370507823332,1.3156266039109503,1.7870402651973016,2.624209854714824,0.003730300672178931,0.0009956004864132275,0.00043822058695586116,0.022273987651476698,0.004380469162558183,1.18
269,8594,-0.9873783509001379,0.1047676501661352,0.6475948398380884,-0.041277013653180046,-0.04722128243892874,-3.141592650912764,-2.7129974248187914,-1.4121154372988254,-0.031733259127164376,2.18962041102186,0.001481511636470801,0.0043840688379027815,0.0322615137861295,0.0010000000026090241,0.015931570596084924,0.476
269,8595,-0.8888170161536013,-0.09931211801075822,0.5078494054087022,-0.5617332368152373,-0.5593405545928855,-3.141706891508404,0.6737782693280105,1.323203321882911,1.8096526762544012,1.8099636297367865,-0.190002429786961,0.0010000593210480737,0.000860574498772304,0.030345780899553414,0.021186968745691138,1.108
269,8596,0.07384692714718093,0.04255319149382161,0.06808510638278703,0.05106382978348209,0.09984981187372015,1.6409568993625e-05,0.0,0.0,0.0,2.0707442096590256e-05,0.023202444244547725,0.001,0.001,0.001,0.024022517059952807,0.44
