Numéro enregistrement,Numéro battement,Amplitude 1,Amplitude 2,Amplitude 3,Amplitude 4,Amplitude 5,Centre 1,Centre 2,Centre 3,Centre 4,Centre 5,Ecart-type 1,Ecart-type 2,Ecart-type 3,Ecart-type 4,Ecart-type 5,Période interpics
290,9244,0.13812904545556043,-0.19729437510400757,0.4772024675668325,-0.221930163780651,-0.08655245964696448,2.1753977878621886,2.4542852791915246,2.576793894186429,2.703415746448036,2.936934856582877,0.022025333171315754,-0.0163356348268511,0.027798909282477188,-0.049605900264045925,0.00881857028397044,2.83
290,9245,0.21447734880964983,0.4430305588583968,-0.018952875683095276,0.02653432834951604,0.28268542207650915,-2.832834253941974,-0.9803001607564604,0.023156702606311058,0.23928592693181747,2.106985695661459,0.03990299230698494,0.0010940604951704671,0.0010000000031155634,0.0010000002200600813,0.04821400791927116,0.56
290,9246,-0.12222752469545861,-0.08101502538877713,0.4582130378422522,-0.13259982229880488,-0.10194526679586223,0.3165338194575324,0.6029319233861582,1.1105343621138688,1.8716181874073021,2.1892432235215447,0.008052694007218099,0.0010000395519311747,0.04047028893787342,0.005051318200692948,0.004903433578580253,1.068
290,9247,0.5838319029189871,0.42482375932470395,-0.02090692372216379,0.01703130429039988,0.21364378142872442,-1.17681734988169,-0.938009581261402,-0.16377971179862424,0.014889064708954146,2.0550638652274134,0.12247315088201706,0.0012688045818433072,0.0009999997418315134,0.0010000000419594915,0.04658018932891504,0.516
290,9248,0.029221297588848387,-0.15750545727574858,0.39952337782954694,-0.173549783478704,-0.14582020154775244,-0.4928184899407804,0.5665167074712456,1.1692542588170531,1.7879845232469762,2.3766080021338114,0.007821034607027556,0.001000514186658529,0.07207613160241974,0.039686949612634685,0.033192064864695225,1.174
290,9249,0.20819860789061542,0.3654406379551811,-0.05686420555963978,0.06526180091542394,0.19881594543928094,-2.5325386310242086,-0.7373125607983003,0.43277041656512283,0.9617120332315179,2.291966962690536,0.05174485849580557,0.0010007713600314041,0.0010000017663301377,0.0010022506432620362,0.047673911192512346,0.534
290,9250,-0.21450819401921103,-0.14576395866723674,0.43619570496002213,-0.13083804915435973,-0.14490436647542507,-2.6579087897848495,0.4749888096932374,1.0916408713097627,1.6582945177713337,1.6584433428948118,0.05000868192752257,0.0010000018195792095,0.0010385964847582354,0.0007539003589730487,0.032141132355144035,1.032
290,9251,-0.0013403571944301724,0.4057873923358653,0.44153623002901954,-0.08262284007174854,-0.04787336711290276,-3.0388706288516296,-1.0700247285777043,-0.5050516800038864,0.5050516800047087,1.4981439887203343,0.010180106304141468,0.0010111219513043715,0.001000002928046694,0.001000000547867307,0.020082295109688203,0.476
290,9252,0.10098274230384316,-0.12212942392186349,0.41460054957101594,-0.21976421362518758,-0.2173646070453594,-2.875816624808025,0.41555458380794963,0.9142200805888401,1.4949364942628738,1.494960732618167,0.028649468161657792,0.001000000668534672,0.0010030978029447182,0.0055264926914548405,0.009750721937995215,0.992
290,9253,-0.3121498943254344,0.5853070568119235,-0.042228139948409134,0.051966068477532296,0.18553589832943113,-3.1416255416048,-1.1575256548272088,0.13528389417364226,0.3757885949220675,1.7590409848442965,0.0034260452311429697,0.11925859758988341,0.0010000002417996359,0.0010000079204212633,0.04152615082935299,0.52
290,9254,0.1865859775300492,-0.05706816592927687,0.6025755596952946,-0.014105875681289987,-0.09358737899504649,-2.749452051743899,0.7157105572604092,1.2130062432836992,1.8909526123341227,2.523939471066808,0.04658349094431281,0.0009994638541570003,0.08298390761552518,0.0038381670887228606,0.02990708814857827,1.152
290,9255,0.42771380487709304,0.3985823755210241,0.3577728248814281,0.05446663689100526,0.13993480071712944,-1.3825868088261997,-1.21099941341241,-0.8876735740590741,0.023156702606313695,0.02338105977003374,0.09463975570517649,0.06690571809981383,0.0010151532628667184,0.0010000000084030005,0.03736877120933237,0.516
290,9256,-0.16616926296415274,-0.18125148433663052,0.6337109920609265,-0.1519048794160934,-0.14976608478732908,-2.6265526577983134,1.081531889473822,1.6482967264018153,2.4036257273678627,2.4035961171483695,0.04679065107473766,0.0010050216561395256,0.09037533765850106,0.02825071545315455,0.02561343962844241,1.112
290,9257,-0.1984572947076497,-0.19846123665663915,0.09064448594472517,-0.012650017341206575,0.022721144523682325,-3.1415932685363765,-3.14159146832881,-2.4183481354875687,-1.3786845458199812,-1.378662386899909,0.009883132492502179,0.0009999793149699223,0.0010659016415605063,0.001,0.0077357096802715564,0.392
290,9258,0.32669853448164243,0.3351362580564201,-0.19911029238037245,-0.09267710971873999,0.12173472216448743,-2.469335300039016,-2.0696336951079517,-0.9351228968877981,0.22064697567018532,2.0698792821987393,0.07777588946242646,0.07394286285602919,0.0010000004828290545,0.001,0.03390053856857199,0.164
290,9259,-0.47298670507663704,-0.0847522913248731,0.3599601532195553,-0.2233432351862982,-0.12257011914989233,-3.1416611498954676,0.4069420535734352,0.9766609108962425,1.3994934130906658,2.018491199763317,0.004460168842309872,0.0010000009689887781,0.0010111178512368637,0.03325203924559634,0.007497989040140502,0.992
290,9260,0.2782992170372966,0.2785906590834874,-0.11504315061456481,0.4437471606950204,0.533003151971031,-3.141673938874407,-3.1415926535430203,-2.894152967879225,-1.5788771873747074,-1.0055695913863867,0.003520405088896772,0.001,0.02558616226897608,0.08870157737791193,0.11758393439386923,0.552
290,9261,0.23711241829531804,-0.10495966591590537,0.44784280187173314,-0.1218904310536211,-0.15047460820635658,-2.7089032776305375,0.4986655005689157,1.196718121768468,2.111574056477144,2.1111916859839637,0.05289220346391515,0.0010000021025126085,0.041052615773382435,0.00031637483735480346,0.04648239726944398,1.072
290,9262,-0.2924754577869932,0.2855614248213829,0.38278252195225687,0.02027779960611977,0.13358887950121506,-3.1416159564885624,-1.228555699323224,-0.5616255023169638,0.47387151758057905,0.47399883516906405,0.004072891543850383,0.0010405237782705181,0.0010000022669227606,0.0010000000134892098,0.03352563060178947,0.44
290,9263,-0.24302303395028685,-0.2431403299588873,0.2077036589425796,0.17762948962689487,0.31478310965188905,-3.141621823773684,-3.1415926532883476,-2.5481244346617298,-2.1591142780605295,1.4230091176515371,0.0048275533917935326,0.001,0.05955387930082952,0.044616784353599254,0.07510165901815752,0.988
290,9264,-0.07302008510177006,-0.13103777396975078,0.3696683442849661,-0.17875252459808072,-0.22609317468230214,-3.1415926539538686,-2.449865830577301,-0.08646585285109509,2.104002419376659,3.083837999615734,0.009999893333900401,0.001000262175392507,0.001,0.001,0.010264697948899849,0.24
290,9265,-0.2163546056586847,-0.08924737526832453,0.007004895720347329,-0.14423081492837805,-0.31786712493179453,-3.141593002372998,-1.9578041174545087,-0.8650762379450154,0.5918942680676422,0.5920664656264476,0.009918194178723206,0.001000000000138778,0.001,0.001,0.09156003081378349,0.356
290,9266,-0.17916255934327055,-0.17924101566484887,0.3030151836268711,0.30066625054369467,0.500440799589878,-3.1416029559491037,-3.141592648057729,-1.4461299516524446,-0.7812426175593665,-0.7814653734028335,0.008204502530817183,0.0009999999994934608,0.0010000000000346945,0.001,0.12864341105826546,0.196
290,9267,0.030457872079804917,0.024274387933005966,-0.2392276822003608,0.08190532322859488,-0.16425223412795129,-3.1415011163646023,-3.14159265358977,-2.8856109942123727,-2.559623005556625,0.37239712327453034,0.01775137574818977,0.001,0.05945082265894951,0.008567064055212523,0.047032951110981026,0.404
290,9268,0.17120618361275783,-0.040616850811340824,0.3852229297366868,-0.12506106200202427,-0.22931245795048846,-1.3222670476200775,-0.11635528346628865,0.4759988869075449,1.3856856473286578,1.9145756217073508,0.04772015611632629,0.001,0.0010000000000277556,0.0010010313073658952,0.057526875013657934,0.676
290,9269,0.04307996583477472,0.04796163069559216,0.04796163069600849,0.04796163069600849,0.04208428340771178,4.457163681303998e-05,0.0,0.0,0.0,6.399813037502587e-05,0.005400151668073477,0.001,0.001,0.001,0.008369249919291622,0.512
290,9270,0.1785475513975666,-0.07725970969059218,0.6119768880940117,-0.10104276528843678,-0.16574113187872488,-0.03674445952300623,0.6548050252618701,1.1992619442236983,1.8024752621189142,1.8027082330246502,0.04249542210215235,0.0010006987609588172,0.10764040356443697,0.01177631450704245,0.04168171372106708,1.156
290,9271,0.2480420824141253,0.46346710382944795,0.6159591346822754,0.031680282712045316,-0.04615439246054672,-2.2987471736535188,-1.6191233638409337,-1.1305406332462553,-0.27350336042891576,0.8055733998049743,0.06605192929333127,0.11888747204075083,0.11568347964416206,0.0010000022909382724,0.010938964892942228,0.552
290,9272,0.13325273938011187,-0.17386405587044196,0.5730506815890599,-0.25105888367459295,-0.20017599368035263,0.030295043081151662,0.7249829177749829,1.208549100680485,2.205714762358972,2.5828430260799395,0.037308667128994624,0.0010017516788436423,0.09281660119950144,0.051652991206580394,0.05469470906888491,1.148
290,9273,0.1498628470908175,0.43428434399509436,0.5752705015145756,0.11517253899419062,0.2494509104084105,-2.6708699134590597,-1.8772334617362065,-1.3655788915812748,-0.32963177696512463,-0.3295244452498963,0.04500464807967845,0.09885387480977517,0.1407045829224716,0.0010003615757207531,0.05673311995001547,0.516
290,9274,-0.24889502629743865,-0.2198040449318635,0.3740007557587942,-0.2922198123707265,-0.2743971014950064,-2.7519132230709364,0.88536697057532,1.3155186110477157,1.8390588812228743,2.3496518194033635,0.05870264883175694,0.004730629003897984,0.051544251327930286,0.05593623757814322,0.062197398442491246,1.352
290,9275,-0.3296535923405017,0.4719613597327358,0.5841203485360502,-0.04034496349739029,-0.02876568910756882,-3.1416084720866015,-1.8434199192545864,-1.2529995053660072,0.04424778385334366,1.5338435252464275,0.003340731778028447,0.10181779006108213,0.1213782758499167,0.0010000001782393677,0.0063687665908914995,0.52
290,9276,0.43067987115516526,-0.1796051627812615,0.488196605199986,-0.22317117951206594,-0.2489254794146299,-3.1416095085693594,0.6343600543907308,1.2696533957610316,1.7971264067351231,1.7961075873442733,0.0033213190560568533,0.0010006124731485868,0.08319330433769521,0.02498061644624803,0.005034036561022971,1.184
290,9277,0.11380706030128533,0.066945606694846,0.06694560669442967,0.08368200836800238,0.10537282366884786,-2.7755575615628914e-16,0.0,0.0,0.0,0.0,0.02693902222418828,0.001,0.001,0.001,0.026772799523133405,0.48
290,9278,-0.058088640170900124,0.0,0.0,0.0,-0.05808864017048379,0.00010081256874266974,0.0,0.0,0.0,0.00010081256874114318,0.02029903183171613,0.001,0.001,0.001,0.0202990318316398,0.476
290,9279,0.0460613525004925,-0.11434066696198017,0.3640933810958908,-0.151900528276766,-0.17712584104009885,-2.4661985926762244,-0.13303161073833059,0.4809604388231934,1.2382172996887468,1.2380840284800474,0.02165806279770919,0.001,0.0010000000001734724,0.001000282799374196,0.03329110433073326,0.716
290,9280,-0.029411267640361297,0.0,0.0,0.0,-0.022825373223733812,-5.740262434036912e-05,0.0,0.0,0.0,-4.927202087112724e-05,0.014657540359956324,0.001,0.001,0.001,0.013361765744717936,0.512
290,9281,0.10900176775985859,-0.05837367787086057,0.6703589999390434,-0.11903917150050664,0.08957467183391868,-2.6823505778131564,0.817674788674865,1.3060078373473687,1.9795329787455858,2.381383661318184,0.027686880229197942,0.0010059254161299816,0.09177354591792433,0.02616207796279118,0.026711974591826483,1.24
290,9282,0.004586290439229091,-0.025615916713905843,-4.163353689579097e-13,0.0049382716045542965,0.041871669861637276,3.555165286051043e-06,0.0,0.0,0.0,1.827588741967756e-05,0.012208543057935463,0.001,0.001,0.001,0.015150356193375748,0.512
290,9283,0.148832305661377,-0.22804285157120052,0.3408769457012226,-0.4546805026358177,-0.14562948727920563,0.08150447903756075,0.9868403433037378,1.6748623534376081,2.435899790704427,-0.4796864921793862,0.04374612722344132,0.0010003619388816434,0.08334537118565621,0.08292779824845595,0.04395857953278353,1.108
290,9284,-0.12271165044787147,-0.16886654349508368,0.04258342574297139,0.03827190442779108,0.16093885998597246,-3.141592775337276,-3.1415926536170575,-2.3682775382013332,-1.7882912028126514,-1.7878523688999843,0.009974305821930053,0.00100000000138084,0.001000586260616442,0.001,0.018068046129648664,0.356
290,9285,0.310906978847575,-0.007079976793194804,0.43580954630941626,-0.1839461793189631,-0.08414317544759645,-3.141608916074746,-2.8444899464004845,-1.9325182315158411,-0.5847128282706547,1.3776810308132241,0.004622300229917004,-0.0001885079600551513,0.09002249482958816,0.0010000000051417204,0.029923729068435635,0.164
290,9286,0.0677097687902377,-0.20612995893244504,0.3482666228097135,-0.2443017351639638,-0.1464893633170037,-0.04568038892786844,0.6428042605323425,1.3669351989469236,2.1094937348696834,2.4173689393598665,0.009767193046243362,0.0010000012965184482,0.016651419457848864,0.05935736012736742,0.042245739861609725,1.028
290,9287,-0.06882137086506518,-0.15454042320323874,0.07890574165999625,0.022859252957197762,-0.14891652885656265,-3.141593003527169,-3.141592653589793,-1.840075697102593,-0.7629582158718069,0.5827406162650177,0.00992748609074774,0.001,0.001,0.001,0.03157766133779187,0.436
290,9288,0.014005866472294176,-4.163349352770407e-13,-0.0067340067327892345,1.3877657703553758e-13,-0.036619540282473176,-4.163336342344337e-16,0.0,0.0,0.0,0.0,0.009879596700308425,0.001,0.001,0.001,0.015618913216674758,0.124
290,9289,0.1750040503462615,-0.19327398698244566,0.4124034411793973,-0.21193102834760652,-0.16762763900825398,-0.36734276639602037,0.4177649805302739,1.0193465353880313,1.78820553692363,2.4899541345939933,0.04826986342053702,0.0010000008745712488,0.0010110613151832473,0.04702205883635224,0.04639549635429263,0.988
290,9290,4.498026950905398e-08,0.0,0.0,0.0,4.498068584268822e-08,8.715111965429401e-11,0.0,0.0,0.0,8.715167476580632e-11,0.010000000000124866,0.001,0.001,0.001,0.010000000000166499,0.516
290,9291,-0.12893732052360915,-0.07031639039546761,0.6124368800488955,-0.19725547500494428,0.06455755162272114,-2.941557322330379,0.6375359173284398,1.1755639525050552,1.6813566125747927,2.619417558442895,0.009225088493905144,0.0010001496679169488,0.08397133251091579,0.009541867685167542,0.02172654888292877,1.116
290,9292,-0.38536549848052193,0.3715428273841608,0.37424345022627165,-0.10902271351281942,-0.13598416833058524,-3.1416046180098816,-0.91594118113963,-0.5906536596624132,0.5906536596654839,1.9947137812575078,0.0059846000468152865,0.00100118750671102,0.001000009765820097,0.0010000028446064948,0.032053503621048696,0.52
290,9293,0.08366184354666188,0.0,0.0,0.0,0.08366184354624555,2.087414156387578e-05,0.0,0.0,0.0,2.087414156443089e-05,0.01843753450995019,0.001,0.001,0.001,0.018437534509929375,0.948
