Numéro enregistrement,Numéro battement,Amplitude 1,Amplitude 2,Amplitude 3,Amplitude 4,Amplitude 5,Centre 1,Centre 2,Centre 3,Centre 4,Centre 5,Ecart-type 1,Ecart-type 2,Ecart-type 3,Ecart-type 4,Ecart-type 5,Période interpics
292,9348,0.06523469316108194,-0.04845576665385026,0.7512382031419266,-0.03455723615406764,0.3095780200486477,-1.9061180410431362,-1.2940286047252545,-0.8932570401167491,-0.5177156742277869,1.6472573537982071,0.015130223567385815,0.003990818568446988,0.10880483554455672,0.0009871705266413225,0.10324373540378978,0.582
292,9349,0.06411248415970318,-0.03449337200485037,0.6404341470150505,-0.06246569063132845,-0.06058131122171844,-0.8583909608448438,-0.30137403533811863,-0.008270861579696316,0.2925393071701465,1.032094139492853,0.01691912712394783,0.0009019953308143639,0.08264532101722497,0.00490701123972534,0.01757212260883361,1.388
292,9350,0.14947144122116177,-0.00313439877781594,0.7532624627573706,-0.014150515460204214,0.07508641673580049,0.462910520768346,1.1921221597020712,1.7117829025203133,2.187894883750043,2.4682232391189807,0.04002000541996177,0.0010145179513376392,0.1322131501429238,0.00027173317169210034,0.004156182056580247,1.364
292,9351,-0.08597469346824924,0.03905707151985187,0.20822972582546923,-0.017358068473183108,-0.024155913634873606,-3.141614037803168,-2.222447100656748,-0.7783647470075363,0.19693565888174802,1.5849381695392226,0.010967297529727539,0.005480557764415669,0.0010000032219504842,0.001,0.016922337145682358,0.428
292,9352,0.06893501195922092,-0.04928579952191637,0.6444282106295777,-0.0767696537762361,-0.11449755624934752,-2.6567562021662727,0.5127228366392825,1.1652791660801207,1.743032838255727,1.7429529223320819,0.004815345883483753,0.0010000000075668638,0.0010063818157876317,0.0046107916230460145,0.031208643789235446,0.912
292,9353,-0.058506717559128944,0.07728842073908462,0.22705868025357376,-0.0019451384023173085,-0.09350410540062098,-3.1414132461190145,-2.585875192336269,-1.0152707965236116,0.306496844252663,1.8200394047835737,0.02294917534843536,0.0054902994404787235,0.0010000894685957265,0.001,0.021334822083174082,0.436
292,9354,0.0641218687113499,-0.06903508093240457,0.6645218381902244,-0.07730920764492745,-0.12360017330667362,-0.823295183384481,0.32565289701845446,0.9386465854828717,1.5707725110592425,2.04949974077604,0.006683322025528558,0.0010000000000485723,0.001000072654271488,0.0020736740834182968,0.03443468879559374,0.876
292,9355,-0.08588016188924569,0.1041181197727998,0.24908315056028776,-0.031045668389130456,-0.06346738402028464,-3.1413666611537496,-2.5665479164918277,-1.0802321741997163,0.46578818523255583,1.9921565992047698,0.025080400665189163,0.0057361960950030755,0.001000090810046982,0.0010000000000346945,0.01409085259193625,0.436
292,9356,0.1005084956845073,-0.03951254353575027,0.8660283442912909,-0.026984300378313186,0.05318694389619811,-1.7982849916687615,-1.0312102115144959,-0.658792590052278,-0.2757886662569735,0.5516192875843933,0.00808351283948901,0.0008574426038726323,0.10600504953013178,0.0010010682853213151,0.011490910328399257,0.832
292,9357,-0.12672536308730423,-0.07504054956817353,0.6711563026214553,-0.11136684381742545,0.3290248274249974,-2.987351464731831,-0.26780736195901284,0.07258376464926225,0.4120123877193798,2.389778837377897,0.028597220537493175,0.0011287948773465164,0.08326732787885649,0.0009048028759551788,0.09809345577063744,1.264
292,9358,-0.05903729084722233,-0.06679658433324424,0.7604740400051057,-0.10034728353448125,0.08796942879263313,-2.750974190043141,0.9690484717166161,1.501341316453055,2.0006177223473296,-3.1416387550879072,0.011867160410576295,0.001004696817323957,0.1254384314614752,-0.0004590789391491498,0.0041905885583772015,1.176
292,9359,-0.058582878895001834,0.1277003894003171,0.27132834082598384,0.003835434031696644,0.08195656068185794,-3.14158935652948,-2.8150089522558837,-0.8771979487294002,1.1015974239864885,2.3865997740508984,0.01538428851644051,0.005469277817959627,0.001000000759680513,0.000999999258568778,0.006184399424423857,0.432
292,9360,-0.0976179531561984,-0.12507194174987663,0.7554923077827128,-0.10043601256156344,0.24524521538774063,-2.815785311981863,-1.1268078940496613,-0.7287108104739483,-0.3437059018632893,1.8874288441530955,0.004078187779272822,0.004126339561794491,0.10520022878050371,0.0010065592687184535,0.07188848342678777,0.8
292,9361,0.10906106302806202,-0.004405958499678193,0.6774291080455052,-0.0056184742309376865,0.2834052707251802,-0.9708645405252492,-0.45795828545340056,-0.14537443255696914,0.17402414289275442,1.8594888467693114,0.030950208998147384,0.0009574272825722533,0.0891785007723797,0.000986586959797169,0.09660187735784131,1.284
292,9362,0.044010576480003234,-0.03572633677113033,0.6890978732366076,-0.034683436986308706,0.3233066994672378,-0.7038556411020797,-0.360309097548943,-0.06756308559956913,0.22335546918108756,1.8456078448431572,0.010324335859051804,0.0029880323005420867,0.08235452495762477,0.0027737039319197464,0.10582253587290746,1.46
292,9363,0.0844559790030538,-0.023411303213911928,0.7326198544626993,-0.028292385641174984,0.382113503840932,-0.6982317295288327,-0.19690919545699576,0.10791059584118672,0.37580120904351877,2.0855534990757167,0.025330978243879154,0.0009370674032168894,0.07948251415505313,0.003003515597582408,0.11956006877416855,1.468
292,9364,0.07588562324281184,-0.01764078659891078,0.7603221190349752,-0.029757297950949068,0.08988680944726189,-0.8690256118363642,-0.3621435579974402,-0.08088603488172877,0.2082253320766159,0.8420052135830052,0.02975359337849299,0.0009128798042445644,0.0765066225338469,0.003945680994102111,0.02713607192445342,1.34
292,9365,0.05212099040197175,-0.046797023197020365,0.7319613938966095,-0.05972556429322242,0.010336627361953057,-0.7388683879082534,-0.2896034874860305,0.005046877384493501,0.2891528772835529,1.0500718719350974,0.01806677423376491,0.010599606326363144,0.07709794657079465,0.003066515696664406,0.009193491858725351,1.436
292,9366,0.10970063483772947,-0.01791393599686436,0.7169010276085067,-0.01490745624318747,0.02786830460183406,-0.5754840398640317,-0.12742056162853052,0.1727999931058471,0.4701409279525975,0.9710398592932219,0.02803485793679462,0.0010846546607674581,0.07906724782967457,0.0008685870145447022,0.010189111317473699,1.472
292,9367,0.05438241075599564,-0.0064081337936055865,0.7339555819111638,-0.043116228018408566,0.3959946448624867,-3.008055225206867,-0.3470876058364548,-0.07048924559507816,0.20469336354647488,1.8957073915726623,0.014219586159804438,0.0010995151310245746,0.07749671862428739,0.0009017572856890858,0.12855630036943652,1.388
292,9368,0.06941048112024807,-0.04220520430306179,0.6972008490661499,-0.02196378785028697,0.30794592833049717,-0.6932244081865646,-0.2632525072805809,0.0361533383239839,0.3070888434358209,1.9392710130078572,0.013490613076258219,0.0077764736953641915,0.08432870931544725,0.002529773762842106,0.10249989650483851,1.436
292,9369,0.06814906817563755,-0.07825759526780915,0.704375811172785,-0.04471108376886139,0.3531740595096801,-0.7039691927421889,-0.24640168192035822,0.03649339613810189,0.30823714114976164,2.041708981181239,0.013900502875596422,0.015007980145083052,0.07797696543643858,0.004245018057547456,0.11764029666889694,1.428
292,9370,0.04721723320008081,-0.027813720229837587,0.7317254479891873,-0.053699036431103145,0.32743492608491986,-0.7074024203462563,-0.3118651581218906,-0.012859803110232666,0.26801475007358533,1.928930609828262,0.009695290342435032,0.0028397784030572935,0.07789351053523366,0.010006714953147672,0.09773185962731443,1.428
292,9371,-0.058492843743006936,-0.05653911852262545,0.6986590665476035,-0.07391907113082843,0.29728193975290856,-2.9903496524162705,-0.3114897976433185,-0.007946371925986205,0.29378255926476077,1.9847256542660707,0.015097010657477384,0.0008505564510545294,0.07773006224560855,0.010410302442398874,0.09622892054016566,1.432
292,9372,0.09466998438882987,-0.028559098295570965,0.652214453695017,-0.0625280125992577,0.033661118485241864,-0.7316324323877534,-0.15779699900315547,0.12977225415381882,0.4255738008489177,1.1715142374346925,0.02673926977469735,0.0009715162338730091,0.08585312577462617,0.0008678580908663409,0.00918825328567431,1.392
292,9373,0.08386610896909517,-0.03593485917241476,0.7073055238203372,-0.06806477553229527,0.40951905970172364,-1.0440227028278615,-0.39021078296249634,-0.06752886446287233,0.2243870494585989,2.117390720193659,0.017814825939551186,0.0028216312571844853,0.08200894678391912,0.0017132001165165158,0.13478698960105562,1.236
292,9374,0.15197790333677413,-0.015527598983955594,0.8182638859591109,-0.018964632046709833,0.0837716146654251,-0.9195794208844671,-0.35943785249222204,-0.06019152245647305,0.25674249134325167,0.9848527508427959,0.03852926045504582,0.0012329344616636142,0.08743928746903189,0.0009504014941802134,0.027703830782075924,1.34
292,9375,0.027845887402941572,-0.07545649158330293,0.7064117819593048,-0.07114801480649102,0.27627786395277687,-0.8632496250690962,-0.3916152816345373,-0.10578105179729033,0.17791891264807805,1.842212495192092,0.016994190289710796,0.0149475107724593,0.07653466214071937,0.013206601928309988,0.08565688735001675,1.352
292,9376,-0.08238656722892242,-0.028544942222784007,0.7021792906866535,-0.03988013124754778,0.04411744855271966,-3.1416881498865963,-0.21245329008013014,0.11396218609193161,0.4113449491846811,0.93567186140354,0.007713494374468289,0.0009301814103923326,0.08050989188703492,0.0010229200611580327,0.017074510187044638,1.472
292,9377,0.01434900998244454,-0.04304950864918507,0.7347495815285014,-0.05068340658964805,0.37146413755864793,-3.0500011172680015,-0.4028503882253851,-0.11768845575187678,0.16485816467831615,1.877645862821454,0.010305257405765862,0.006014891097793885,0.07441297876054673,0.007051631275053039,0.12626523411586987,1.308
292,9378,0.10188394228955648,-0.030059626625002896,0.7610702996913024,-0.0194846474065883,0.29981394143090745,-0.7969820748131924,-0.36249667133716623,-0.0627243443622447,0.21739689666840678,1.9141722346248118,0.027879483370397674,0.003842439126786439,0.0784044687530916,0.0009087265461356068,0.09896856380067462,1.436
292,9379,-0.01937033609174077,0.11264425245184782,0.7534991617612674,0.04517565982476261,0.37465457597369073,-2.978715894951722,-0.6299234948667454,0.03994872082212149,0.4497273189893731,1.9501441740086833,0.011201984213605699,0.025886496768152654,0.08561637374602983,0.0030482580368498473,0.1256019393139113,1.512
292,9380,-0.17610707755408866,-0.17137839673075825,0.465061733261023,-0.27770053403274864,-0.21829406216033945,-0.6368752974816121,0.2965835404239443,0.7034920601223127,1.0770076501167394,2.1862926135388743,0.049127696034941465,0.001115557007993733,0.07665135495128664,0.06789452907596849,0.06950714220253486,1.42
