Numéro enregistrement,Numéro battement,Amplitude 1,Amplitude 2,Amplitude 3,Amplitude 4,Amplitude 5,Centre 1,Centre 2,Centre 3,Centre 4,Centre 5,Ecart-type 1,Ecart-type 2,Ecart-type 3,Ecart-type 4,Ecart-type 5,Période interpics
36,942,-0.14107399976038051,-0.12781817466114923,0.9240360180093233,-0.21467707311810974,0.2405788199466661,-2.429547415732367,-1.6793244974074673,-1.2807109919904616,-0.9014986545965431,1.6813836396321242,0.010677346075527684,0.0026010247380539634,0.02515235442764817,0.0010139026613297372,0.017819936243247195,0.976
36,943,0.06509509765980809,-0.09018979059724688,0.7405993925540786,-0.19496189694663407,0.23142788658805263,-1.2046207745621207,-0.28909824373304616,-6.938893903907228e-17,0.27945026884136337,2.0806353334610916,0.012201871640518764,0.0010309998649421911,0.0021294868682937276,0.0010898967832164977,0.017608046252147666,1.304
36,944,0.07859854803309418,-0.07512509488118534,0.8224280525706262,-0.18464632920670734,-0.003529128969994414,-1.257728138214278,-0.3074289263256188,-0.019151974612483705,0.24977837546328321,0.9415141185474676,0.012353357940074776,0.0010292430472569744,0.006941856067652676,0.001069078722659266,0.009995250222119235,1.304
36,945,0.12977122211909348,-0.04796131147535959,0.7748320288523274,-0.19007775025005055,0.22947847128563242,-1.212711642588763,-0.2925730045859927,0.0047808020133378905,0.2733736166083932,2.0757845947352807,0.013312477044542968,0.0010162573996130566,0.005866682763849178,0.0010916689285011124,0.01742750418203918,1.314
36,946,0.089117651342485,-0.054112635248499824,0.6632551229903697,-0.1981679540093802,-0.2063337701469588,-1.1596342138929165,-0.2706579197367464,0.019328228475291906,0.2899991446501222,0.2902439721188071,0.01129383412130462,0.0010144808878508457,0.0012079084630811357,0.0009623595162900892,0.01687685059944334,1.306
36,947,0.09972940885123718,-0.06408497789885492,0.7329658297213488,-0.1736674512183752,0.24615187222744267,-1.2943349325416764,-0.30308991407726715,-0.023990959712145668,0.2549730013306151,2.0641160490677124,0.011254532666092288,0.001022915035880755,0.003010695711401749,0.0010628169612428703,0.0139070328706459,1.292
36,948,0.20241033958763718,0.05623106774293952,0.8767874679190608,-0.08475246955133801,-0.08407716483918808,-1.1762601639481576,-0.4279498329413298,0.06785989771871838,0.35987711643042947,0.35998768970449707,0.013925149158271642,0.0010349315239120407,0.005685002834282709,0.0009757062069209724,0.010054849351030263,1.322
36,949,-0.7014852819955217,-0.0744751709213782,0.829865128147646,-0.15920832824428044,0.011094622854824128,-1.9902268785105228,-0.3609847385689351,-0.0682050307585341,0.20488221721204067,0.507323038529775,0.031744741008646556,0.0010310189714369802,0.001832113859944722,0.0010296250746942284,0.009988665526720437,1.26
36,950,0.09140862275041252,-0.06860824793936461,0.7715919181544159,-0.20003741942113892,0.24518173678053556,-1.231755030954599,-0.27691433629881734,0.019036714074390906,0.2864413228308475,2.0615856273566946,0.013171554123083294,0.0010242660328867578,0.007211884897485357,0.0011319378299041024,0.018209090997293467,1.318
36,951,0.0237689097953537,-0.061301929616798104,0.67359795789181,-0.2060388428469647,-0.23946982672531944,-1.1432792881173628,-0.2690018319048353,0.019201780199073454,0.2882262183986951,0.28878037476826857,0.010802220679479195,0.0010183181055640053,0.001482338903343288,0.0009581519321479457,0.017779341042150135,1.312
36,952,0.10315358651998578,-0.042495185013769796,0.7592521356345223,-0.17715451854311556,0.28060019030734185,-1.252779670006703,-0.32269762908957444,-0.03784582354118082,0.2277768914628739,1.9823333385112625,0.01356130888268396,0.0010189006354388288,0.008620717655647678,0.0010731886240504243,0.01893796532088851,1.304
36,953,0.11776333082747258,-0.05200273165188304,0.949064516147871,-0.13941709501312985,0.2731596160128205,-1.1812303246307885,-0.2474091598924986,0.022965503967009762,0.29406162976158934,1.9174481830444736,0.011340161633616756,0.0009850421358939257,0.01717137087825207,0.0011225476910188261,0.018277679341011398,1.344
36,954,0.11591192713460112,-0.06302964822937232,0.9563712989883507,-0.18035826552011353,0.2561256622414395,-1.1893683640963153,-0.2695389334568224,-0.00021628376722884757,0.2602112808157245,2.071947778443134,0.013407334396569283,0.0010333517595278027,0.01791442001928518,0.00118934689954217,0.018701187144619255,1.348
36,955,0.08833536365350034,-0.07420604587540675,0.7521853595863954,-0.23127906239375762,-0.2852419992254147,-1.1814893464887573,-0.2344424696162724,0.04674706933521246,0.30947746253222985,0.30859176219642054,0.012670429729382633,0.0010287803723362373,0.010946675101036923,0.0009529517300685123,0.018977210027563016,1.356
36,956,0.07961413258612887,-0.04402542742521745,0.7199939314204552,-0.202237673496495,-0.2341465064195005,-1.1864881137409864,-0.27524751779617274,0.009461376020613387,0.27524921685609494,0.2742599922953826,0.010747201754043199,0.0009879112016853977,0.007195686565221021,0.0009718306160976373,0.017745838983618048,1.326
36,957,0.10541232342177279,-0.05607975523604676,0.7749787186680569,-0.1824601553312253,0.27672894524659264,-1.22180355789152,-0.2838747678630005,3.469446951953614e-16,0.26493197665064294,2.043917484141003,0.012044448982890766,0.0010231955863399386,0.009459239289957884,0.0011138329436704139,0.019330504611811364,1.322
36,958,0.06909825168869285,-0.07018186235525206,0.7859676900799292,-0.2058093934684928,0.23380349078780605,-1.1886364189916097,-0.26061038144171184,0.023617733507849265,0.27953371709903785,2.1458355658995805,0.012070281050434546,0.0010258820422409378,0.009549036542820353,0.0011699891525305808,0.01822624407013128,1.332
36,959,0.06385501317322353,-0.043064333092481887,0.7993707751147321,-0.18481675401076345,-0.19784554328016155,-1.2190114275805999,-0.2700889262501432,0.0047234898007667316,0.27009564937951736,0.26921194945612636,0.011406340246080697,0.0010141054184003148,0.009821704823055163,0.0009726341320027691,0.01646801122349354,1.32
36,960,0.10613384245680871,-0.06333324267493062,0.8575617966275701,-0.14978286108348848,-0.15807779933212596,-1.2021420677848627,-0.251894326437478,0.023688174806756168,0.2994321661300531,0.2995272183643451,0.012709360268357379,0.0010207211127580681,0.010891570574576258,0.0009612226409757139,0.015259188257939716,1.332
36,961,0.10791988580988976,-0.08278066617268717,0.7738899449381597,-0.23916002873232445,0.18251762164230587,-1.1750709726598034,-0.25420118328431807,0.014342449625280494,0.28294805433584735,2.2127597255769422,0.013738065599861972,0.001024552370737757,0.005891539488905558,0.0011724585504765675,0.01623522495388973,1.312
36,962,0.12284674644541607,-0.042021115284650176,0.791100364170706,-0.2111595339431811,-0.22471685746102987,-1.202386149353541,-0.232711754138988,0.04838107911181706,0.3199840972799255,0.3203017732600513,0.011517638636999198,0.000993264183197339,0.0022975754542450535,0.0009562732476115352,0.017788339933267207,1.308
36,963,0.14568388168265445,-0.041590005826498085,0.7590833673261455,-0.22934979436937578,0.2443413237494656,-1.225159233928669,-0.2802345531234322,0.014747361995451479,0.29005483130094806,2.0988405938354635,0.013991422744993,0.0010081157448797442,0.0011208783050273,0.0010784711027671664,0.017397202782009416,1.286
36,964,0.17506980153252696,-0.03329833266856688,0.7843559637022887,-0.22953727070296343,-0.26375546510461145,-1.2385701039783308,-0.2874002156012547,0.009909442839483702,0.2874057857401159,0.28795235381960776,0.015074100526104054,0.0010059228781368326,0.001092515580809513,0.0009698542542286851,0.01894739709508273,1.27
36,965,0.07996917054303807,-0.07491967765997593,0.7193952538002375,-0.2563206657206774,-0.2999581447983846,-1.2233633178000325,-0.2846892344321101,0.014982874338283873,0.284691175833701,0.28380498269158255,0.011042392429058507,0.0010128153076774107,0.0010594259397416336,0.0009982834706069301,0.019478609952692683,1.266
36,966,0.08264591381669147,-0.06362079603341475,0.7152471572880849,-0.24437927539966428,0.2913690809037389,-1.285919601647616,-0.3076021225917417,0.005042474184551036,0.28742562508735703,2.1414623050469115,0.010370822639947331,0.0010100631155377368,0.001043745467493625,0.001046035704581865,0.017997104719269262,1.248
36,967,0.10341661423666719,-0.05188190832623257,0.7600656892632169,-0.2080907721227864,-0.23787312378873873,-1.2824433360835714,-0.29294478728114437,0.010101141565050022,0.28284503815030704,0.28163688729286945,0.011438453507144853,0.0010071395461617718,0.0010458648984497101,0.0009944445697144108,0.017804228181611058,1.246
36,968,0.12424852539063068,-0.047013495213652785,0.7746776105060813,-0.21776975483268085,-0.2647694522003482,-1.2817127824761483,-0.30661818466968493,-0.025131388063124052,0.25635701028523394,0.25669839217086304,0.011212792682578033,0.0010076320975340993,0.001055699252038896,0.000979104789838008,0.01834229672724274,1.242
36,969,0.13747009959954426,-0.05747906744004838,0.7572279331439286,-0.2298139323994893,0.2889138758768207,-1.3027573856889614,-0.30466783387234064,-0.014982785778793466,0.26470594268775355,2.1925655820741974,0.013161493007942905,0.0010108302356373325,0.001064989050993572,0.001043901129171478,0.01973999822315292,1.256
36,970,0.1444762461271437,-0.05745139695459536,0.7718050875592347,-0.2221227196399575,0.24787025209125402,-1.2750613886639668,-0.31267206206450426,-0.024812949650068417,0.2531071404929536,2.196476248199908,0.013200616248310133,0.0009897296443357453,0.0010857071934420167,0.001044205936072031,0.01700952913630662,1.26
36,971,0.12222803064125606,-0.06099979755382446,0.77293031791223,-0.2165341950799904,-0.24287911700793863,-1.248237360303672,-0.2774890780956621,0.009909475792390217,0.28740368691933565,0.2861483234765779,0.012620654149350262,0.0010112423736293999,0.0010895826899073582,0.0009827229657302363,0.017789475370609126,1.272
36,972,0.2028239773018143,-0.04773866657707673,1.0212364549136905,-0.2621895209484339,-0.29032864634641403,-0.43705703575332555,0.9297984787331259,1.335335799239719,1.7328296246072254,1.7335709441377425,0.01633608871975984,0.0010019969551860733,0.028035503102180497,0.0006692297469633963,0.020311133199599103,1.266
