Numéro enregistrement,Numéro battement,Amplitude 1,Amplitude 2,Amplitude 3,Amplitude 4,Amplitude 5,Centre 1,Centre 2,Centre 3,Centre 4,Centre 5,Ecart-type 1,Ecart-type 2,Ecart-type 3,Ecart-type 4,Ecart-type 5,Période interpics
43,1116,0.009900300348207339,-0.202218620437259,0.5003796142737544,-0.28943258742964323,-0.041736470446991684,-2.7615156665074814,-1.440301610619688,-1.0945060415123495,-0.801637503703301,0.8727745197327325,0.010026817505886616,0.0031904338311206882,0.008783371770324322,0.00135200254558998,0.009754519171084842,0.896
43,1117,0.11853027650018644,-0.03868136773930878,0.6201291408489051,-0.19252632594328978,0.23593569530061523,-1.0012646145742976,-0.3423342983719656,-0.06419306370116715,0.1599856408762938,1.841677272843027,0.01155252961526315,0.0009600551028574453,0.0160593494544952,0.003821871823139581,0.01458355045149652,1.42
43,1118,0.007675585669676251,-0.057112321179793,0.6348349005675,-0.1966381566960587,-0.22079064148071506,-3.0349588800937997,-0.3033916988487604,-0.0957941169060049,0.11358697728363207,0.11492418086896761,0.009994625290993915,0.0012785544125777362,0.017539443785000768,0.0022971650864947145,0.012699096064273064,1.482
43,1119,0.0718788169096376,-0.029035851859857003,0.7218563889034241,-0.22264554912258905,-0.01200567880744284,-2.9291848392863065,1.4424669254413633,1.8273805885907535,2.155519597805186,1.1179615578430724,0.008953802008618934,0.0016883060467308133,0.00318154160570079,0.0014998836543533558,0.00997254300281465,1.58
43,1120,0.0,0.0,0.0,0.0,0.0,0.0,0.0,0.0,0.0,0.0,0.009999999999999827,0.001,0.001,0.001,0.009999999999999827,0.432
43,1121,0.0,0.0,0.0,0.0,0.0,0.0,0.0,0.0,0.0,0.0,0.009999999999999827,0.001,0.001,0.001,0.009999999999999827,0.104
43,1122,0.39500759563074417,-0.1690443506850963,-0.2492347639045095,0.0369154398696383,0.2202531947513381,-3.1418833658079333,-3.1415926535897696,-2.702028610154365,-1.287537972782678,1.0525251352760088,0.008543263731050727,0.0010000011025839963,0.00213016816915414,0.0010000000027017278,0.009239421984587005,0.36
43,1123,0.34440329832030997,-0.05121017343079093,0.449953429389239,-0.23093501874646932,0.1887376916818,-2.3302017322281694,0.031948399867015614,0.6070195974732788,1.1607918617562614,1.8193259993434703,0.006700335963571084,0.001,0.0010000000000340006,0.0010000027951256587,0.007963668228796279,0.712
43,1124,-0.03563660106568562,-0.20310540902142135,0.15201143863314795,0.21394956897442746,0.18136089020996005,-3.142924102194323,-3.1415926535897927,-2.9053826923399706,-2.7164147082291596,-2.0878987546312646,0.00793601460431721,0.0009999999864826184,0.0011717324763630957,0.0014835429536939606,0.006866028080277096,0.468
43,1125,0.1027431102399605,-0.05536423832229527,0.4672706577470867,-0.17879475462669883,-0.37279301156686095,-2.774642572265787,0.8292528805336523,1.3075718414016742,1.7207964757975298,1.7175255609666606,0.008740012127923759,0.0010000430306668076,0.0013780547005520496,0.00167579945999302,0.008200790724029417,1.132
43,1126,0.3880079835416851,-0.6001556326571987,-0.0006931408205187734,-0.04044706430551129,0.051507606309390205,-3.141583413036937,-3.1415892919487884,-2.605227058465028,-1.8389810655159728,-0.03707623786057401,0.010044169642210677,0.0010000072534994678,0.0009865443143748367,0.001000000000426742,0.010169419454777824,0.444
43,1127,0.05569249074346584,-0.23541365256516275,0.2405537569558508,-0.03211540240287657,0.20822931106646764,-3.1420034911894534,-3.141592653589793,-2.7925268051630825,-2.2374115532903844,2.0035649869131738,0.00906406970804653,0.0009999999999997225,0.0016841018163793178,0.0008226393091407875,0.007639004028078106,0.212
43,1128,-0.2481909989466061,-0.06855440424168034,0.4509151894765147,-0.20092687770407822,-0.2034716341583127,-2.8410200622319834,0.17649396930279415,0.7236252740633249,1.1648601358031985,2.505347549888011,0.006097405959054815,0.0010000000000302536,0.001000002992610465,0.0010007752500359726,0.007095489602068904,0.872
43,1129,0.054096026674091885,0.16778534372356008,-0.030180343660358946,0.21245538231305316,0.031425742733294286,-3.142644974035476,-3.141592653589792,-2.8775213999493072,-2.246416692700226,-1.6048433276081808,0.00823623422653348,0.0010000000000030531,0.00021156052673815246,0.0025892949068750315,0.01128449495929519,0.552
43,1130,-0.03911923808978931,-0.04493311623529276,0.559909233503018,-0.2123178900776421,-0.23762849166503372,-2.9182896827050335,-0.9694021658879446,-0.7004315002710271,-0.43137377363173696,-0.4320540874019991,0.010221604492763837,0.000891593906487658,0.012181478191858943,0.0011172338181362753,0.012646709187772815,0.968
43,1131,0.08206673821614625,-0.04229885803592686,0.524914041645711,-0.25974851159026274,-0.40838597760643985,-1.0978887904067698,-0.22802753460808,0.03172291513234625,0.2533800305786239,0.25223890775860697,0.010042836315529947,0.0009662281404408383,0.013330226152174421,0.0008794624429921536,0.01936688074834271,1.508
43,1132,-0.04060861298909886,-0.03368846663500005,0.596678134557796,-0.2293219428953901,-0.3434165001949643,-0.4893081710249695,-0.2231643814950051,0.01570508325025234,0.24036148367021773,0.24039653097220146,0.010104322231219804,0.0010322634803668481,0.015142197392054014,0.0009012235902692143,0.01809617309692571,1.468
43,1133,0.015822431102748842,-0.06444268160186363,0.6220981938017311,-0.18462491454297444,-0.23635076838508504,-0.49470107409718933,-0.27484980447451185,-0.030864330725812225,0.19770096811243143,0.19969918816547533,0.00999595255690623,0.0009438495157118302,0.016682213461018308,0.001808781944487549,0.014048418490082175,1.46
43,1134,0.0823031327214464,-0.038670538575435766,0.7090556168779251,-0.16337905257374735,0.06715335545507595,-1.1068694174396276,-0.3010919336519204,-0.06348385766068644,0.1446512749617708,0.9685111384424132,0.009971013413993908,0.0011369169221565603,0.020459432957248967,0.0037254407412922147,0.009979161054154305,1.508
43,1135,-0.019088509923946773,-0.03827733762363044,0.6322663584417821,-0.22638416308993226,-0.34739979974316215,-3.0085736561546432,-0.29344448274924784,-0.05689089492631526,0.1438384142722381,0.14291837496107818,0.009992614633338474,0.0009269000143922033,0.018731715490641607,0.0008849155436845411,0.01796061407689211,1.58
43,1136,0.021265802147225062,-0.036615070654767164,0.6189932301789883,-0.28189416236017273,0.1254998313604022,-3.02017852705859,-0.2427348746585657,-0.031736956145479826,0.17082400059361363,1.4568398375686091,0.010005291698944969,0.0012078377804005938,0.0184732407039778,0.006380718417114694,0.010485593139053393,1.636
43,1137,-0.12480983839880327,-0.058245484688771415,0.5988688477074711,-0.23708844583088032,-0.025816162885839652,-3.1419242592874412,-0.3104598110679949,-0.06424827309217365,0.12198393936353381,2.593296122676435,0.00997516725172144,0.0019331225663188057,0.017826120680505868,0.004483010890051733,0.010004285679114473,1.676
43,1138,-0.10825242153299802,-0.017737984254659857,0.7012693538099999,-0.13292005152620615,-0.14383205785070444,-3.141876884784435,-0.21332970652519342,-0.008562633458796187,0.1987028122748928,0.19900596943619495,0.009981350393220524,0.0010738630505259241,0.02111409135539496,0.0008497851284085008,0.010875230561577893,1.716
43,1139,0.004181896701652498,-0.046611983757672934,0.5875020512872617,-0.18261892573021798,-0.24109827829452923,-3.036997427562968,-0.16797855289851749,0.03608823261543258,0.2413322998916715,0.2437874898911821,0.010000832367749344,0.0012170958027512132,0.01733404334827706,0.0016266074538508573,0.015272302695520266,1.7
43,1140,-0.007847174923075382,-0.02275948265751767,0.6156813550613529,-0.24815659013122682,0.03162981894824833,-0.6573643553711972,-0.24456656045970288,0.014806566124737554,0.2164935411120696,1.1312771882034631,0.00999929827951984,0.0010878619985154872,0.01955345348517995,0.007122312656470133,0.009995278558355023,1.664
43,1141,0.11743213632504867,-0.03625535847678969,0.6548057249679483,-0.2814054636906598,0.20244547906516808,-0.8406570085411723,-0.1762932905260159,0.09565723663025866,0.2967553933071386,1.8509183026266327,0.013038595660021654,0.0011239386392936845,0.0210297314099473,0.009351446010206944,0.017281283147546553,1.624
43,1142,-0.02411606190049682,-0.0661703402959631,0.6203149425972111,-0.21618868018090714,0.23957297100201297,-1.5644260875049896,-0.23522739411971313,-0.003616786213010197,0.20915579700990664,1.977708947130211,0.010620001643717866,0.0013723079499648452,0.018899955791370486,0.0056796515001766735,0.01621777952682315,1.512
43,1143,0.11346948850250124,-0.03226196150761452,0.6438979484698468,-0.190026261458288,-0.2531599699774807,-1.085625513144828,-0.19894798639727054,0.03417415246109837,0.2486502110767344,0.249160400102456,0.013750943544057577,0.0009722865881215257,0.01896516048342063,0.0009536123542169531,0.017793163567187936,1.532
43,1144,0.0022027280572330713,-0.03236493241913926,0.5716172182201128,-0.20392937089438418,-0.26676931309706137,-1.6557038299661027,-0.31414252855833896,0.03348659171133095,0.254745814668077,0.2531538194295946,0.009998479655865594,0.0010740846877551882,0.0161603274640035,0.0008934919526525843,0.017171798024600275,1.5
43,1145,-0.034465649630795576,-0.031489097758339094,0.6023835494485303,-0.16631729033062048,-0.23367777079892693,-0.5899524241287739,-0.286379023995288,-0.008422703657032425,0.21697272264575368,0.21677343983943698,0.010941392546149923,0.0010449463247750859,0.015547828196901323,0.000932612966331326,0.018199660547788966,1.46
43,1146,0.13426846678636187,-0.041968339127186116,0.6624997852149987,-0.1948278560353409,0.20046393249747016,-1.1036341638910414,-0.31967559385862865,-0.07138612412421531,0.14036194853731793,2.247557061420014,0.012224729404522556,0.0010900641485727244,0.018059151273905887,0.004332976835298674,0.015414782910672413,1.438
43,1147,0.017014366884087834,-0.05347023826507047,0.700999376334627,-0.16087094526895512,0.06632150484138971,-3.017582181812137,-0.2645065164186167,-0.033827101529032996,0.18192343636274277,1.0750427709747798,0.009986577212485843,0.0011461193202481615,0.02103902249171715,0.004312796287996685,0.010623670048901688,1.508
43,1148,0.13954117264434102,-0.05211872641448355,0.6113484443406315,-0.1570072178909327,-0.18649162914325979,0.057243650340288,1.1598474443741769,1.5196084476189073,1.8488016039044883,1.848882002749478,0.012200349632847203,0.0013901607788173861,0.01581002915743017,0.0005444956042888015,0.01649639936157425,1.534
