Numéro enregistrement,Numéro battement,Amplitude 1,Amplitude 2,Amplitude 3,Amplitude 4,Amplitude 5,Centre 1,Centre 2,Centre 3,Centre 4,Centre 5,Ecart-type 1,Ecart-type 2,Ecart-type 3,Ecart-type 4,Ecart-type 5,Période interpics
59,1526,-0.04173339742641785,0.5055681118769871,-0.7858023728873537,-0.10193937891959753,-0.08514270862562906,0.2631014032239159,0.934997813166839,1.439891905106122,2.785279573390963,-0.07281389743684208,0.01003244284412212,0.0010000123098697902,0.001038287632090489,0.001486605030885906,0.009578011352312467,0.58
59,1527,-0.015328530010621094,-0.12858317949148676,0.6995216045532398,-0.08419575038345775,-0.13648057033353939,-3.142168558293709,-3.141592653589791,-1.3391978664609714,0.045974526637849705,0.23230150654444218,0.009117969811717431,0.001,0.010714312670508461,0.0010000000066734118,0.011489644799335215,0.476
59,1528,-0.175253476096969,0.6630414475477239,-0.9386013061351864,-0.11926073193086946,-0.16842354884918076,0.738908061809826,1.3325066162965529,1.7298152436734442,2.7847805882213206,0.1729375799460126,0.011431774370961696,0.008693105873011637,0.004658619023202291,0.0013640489996353802,0.01217681280992501,1.16
59,1529,0.01784798516405086,-0.08476097132009461,0.6476921065048914,-0.08677166682249582,-0.1225799572083224,-3.141752319523166,-3.141592653589789,-1.351287413015713,0.16455961518630693,1.9597033161634692,0.009773436432153016,0.001,0.010163339929100363,0.0010000000907467157,0.008134402208079218,0.464
59,1530,0.10770475666778502,-0.1105912924376434,0.7007205556300433,-0.9209307265542744,-0.15276689997618054,-0.6228299310637647,0.6855753707855422,1.3453067442630362,1.7369382785220864,-0.15541612261279228,0.011236231033136144,0.0010000736823691644,0.015502011663040152,0.004529787787374947,0.011617881010929183,1.22
59,1531,-0.0661816341267365,0.09169831489309813,0.6730009462300625,-0.06908643266103336,-0.058088819251999844,-3.1412959913081546,-3.14159265358979,-1.3618687638734552,0.21918088279874726,1.9421302163579666,0.01037942052587902,0.001,0.012141007905234714,0.001000000378291981,0.010366335282960921,0.448
59,1532,0.12421112536086772,-0.11380750524737292,0.7138236386234129,-0.9157649432626814,-0.15830210138434528,-0.4834273676131823,0.8123568170674345,1.4131637632935246,1.786960964439821,0.39223428031621166,0.012085880743473122,0.0010009912989935163,0.0186300071712261,0.0038718281743822802,0.012585985201443812,1.272
59,1533,0.04939116979470546,-0.09962866069363938,0.6607400337431507,-0.1224067412063948,0.01870683181379941,-3.14150994202745,-3.1415926535897905,-1.4427117346521272,-0.1923424073277659,2.4149291942376396,0.010105232709146468,0.001,0.016276092654062498,0.001000001207734468,0.009680380449197763,0.476
59,1534,0.15532550036458936,-0.0925479251360793,0.7554563602002479,-0.8960217926070112,-0.08691765664497947,-0.5475272366262914,0.961126071627407,1.4529666696502614,1.8188167995198372,2.410458515028166,0.013506141335740155,0.0010037007973915926,0.01316186795344289,0.003628015646205128,0.012860943878351223,1.288
59,1535,-0.030231186885631457,0.1173968207236814,0.6693133595168558,-0.08282205818676593,-0.03656475843014824,-3.141747994341252,-3.1415926535897896,-1.4355232523422037,0.06411413578461281,2.0454976019818005,0.009798427336854916,0.001,0.0115925887692065,0.0010000001840966269,0.010249766417094837,0.464
59,1536,-0.046025105865238,0.0,0.0,0.0,-0.08133970553263187,0.001054453594508193,0.0,0.0,0.0,0.0012806071046827408,0.011147077274975296,0.001,0.001,0.001,0.011334765415515783,1.3
59,1537,-0.011997026455866993,-0.025101511883772964,0.6791935627219877,-0.0850185187476369,0.07846539604592784,-3.1416330520211324,-3.141592653589753,-1.3622654479331833,0.2700916760174412,2.402097873690604,0.009961367822781493,0.001,0.018225055062951273,0.001000002369384411,0.008579675251385544,0.436
59,1538,-0.133415263278132,0.5941810532024169,-0.9293729338760479,-0.01878254360472851,-0.11951199161857215,0.9956006883614935,1.5113020967669244,1.876521786373956,2.8896961700924555,0.029749738333751233,0.013997506055611923,0.01280512200680536,0.0033565036499934985,0.0002142392041338123,0.010867333784093337,1.332
59,1539,0.06650989684125459,-0.09982141711021311,0.6635583554764792,-0.10009238448227165,-0.14441568078607062,-3.1413212400345643,-3.1415926535897896,-1.358837446054668,-0.06621623859946171,1.2548432737867072,0.010352685109718497,0.001,0.016414006903172434,0.0010000000598225636,0.011340471966859956,0.46
59,1540,-0.0175155202809806,0.15790894735662156,-0.0213735901075097,-0.00932400932351925,-0.20592316020737275,5.6102279554215415e-05,0.0,0.0,0.0,0.00023969976214316402,0.010842763089897551,0.001,0.001,0.001,0.012617161338288564,1.248
59,1541,-0.059289397490319355,0.12618895057324536,0.6848785680052826,-0.08446941625788239,-0.12498586208384652,-3.142219086162797,-2.8943388969245056,-1.40485327148364,-0.1378527954185215,2.27020333518955,0.009067412960967981,0.0011721907413733404,0.013061293498381704,0.001000000210038792,0.007054352624416287,0.468
59,1542,0.15886907993188343,-0.10652235382273012,0.7143318371414582,-0.8579373407439516,-0.09985906891298142,-0.5355201920191287,0.8358364689947338,1.382634344621911,1.7549587785367762,0.10271891222824361,0.013217070602245347,0.0010011181412132994,0.018798138308962015,0.004194716521774571,0.012270953939441968,1.264
59,1543,-0.06377465383994727,0.09759426126273579,0.5806051196513349,-0.0906474785173315,-0.12256673960805065,-3.141235731059457,-3.141592653589791,-1.4769795335401852,-0.08686431300014766,0.3347969698705916,0.01054283607816865,0.001,0.012850843157135276,0.0010000001332102484,0.013163618337594619,0.48
59,1544,-0.05356157863317622,-3.469446951953614e-13,-3.469446951953614e-13,-3.469446951953614e-13,-0.08681487506566296,-0.0010735551082143005,0.0,0.0,0.0,-0.0012109014927347262,0.011046760400516371,0.001,0.001,0.001,0.011130143539075403,1.256
59,1545,-0.05261441810665061,0.011705087561973927,0.701591771502118,-0.07632678585663999,-0.15178056347327712,-3.1414817987770847,-3.1415926535897425,-1.420198345726085,-0.07238692750056736,0.7839161140228241,0.01010665859596911,0.001,0.006997066836028723,0.00100000009601972,0.013243758182485644,0.488
59,1546,-0.10962772317369257,0.8001422149820222,-0.8996715744308212,-0.06036314118449693,-0.13200861383390214,0.8797695559819579,1.4496939830799622,1.831982611560213,2.9650771965483442,0.3352268885224965,0.011290155867807001,0.019136142390576386,0.0035820692008696462,0.001087992702508255,0.012609664987693016,1.248
59,1547,-0.08156737727632843,0.0905937059394154,0.6015293622572266,-0.08943045001048168,-0.14759314634301646,-3.1412369798960933,-3.1415926535897905,-1.3624179405865653,-0.02963766654310926,0.9479377276593267,0.01046361831945143,0.001,0.013897438281359569,0.0010000000290589775,0.008667211565761513,0.464
59,1548,-0.14287367124610967,0.7702226479264251,-0.9866009531439289,-0.10429927941062699,-0.13802654712558923,0.8188257191246023,1.3727506572243295,1.7551620936587258,2.3605181299251106,-0.08342153772698725,0.013272992010248284,0.018130684103308835,0.004427063049881078,0.00207466500133508,0.012320808091173903,1.232
59,1549,0.04724095382400732,-0.09528515762282025,0.6094531866657018,-0.08440964992473977,-0.11016522181897773,-3.1415462049531695,-3.14159265358979,-1.3649193630179939,0.06070710441707328,1.5779066611384758,0.01006592984333361,0.001,0.012534942484127117,0.0010000000121681831,0.008200150672376906,0.476
59,1550,-0.04314244738137783,-1.3877787807814457e-13,-1.3877787807814457e-13,-1.3877787807814457e-13,-0.04314244738040639,-0.0005318898444910125,0.0,0.0,0.0,-0.0005318898444843512,0.010371288467115559,0.001,0.001,0.001,0.010371288467109175,1.18
59,1551,-0.054442168869329,-0.0440210395283362,0.6189938428289218,-0.09463071566672313,-0.157237105336292,-3.1417114826251464,-3.1415926535897407,-1.3278229621415119,0.34199616228788066,0.33842919173583397,0.00985603115824958,0.001,0.005511210582635748,0.00100000008538531,0.011499025801447555,0.476
59,1552,-0.016503343366475274,-1.3877787807814457e-13,-1.3877787807814457e-13,-1.3877787807814457e-13,-0.01646285954032276,0.00027438282674208114,0.0,0.0,0.0,0.00027352105271147287,0.010047936836294303,0.001,0.001,0.001,0.01004696239130974,1.104
59,1553,0.0454306069837102,0.11329031914459922,0.6265328003118316,-0.0685755181518512,-0.08012965413052092,-3.142419994261073,-3.1415926535897816,-1.2375769232594402,0.11106640694512021,0.11267014285013244,0.0086192551871916,0.001,0.0011204166910881433,0.0009999999976932341,0.009763766611227504,0.472
59,1554,-0.14185836848173985,-0.1705618645689313,0.0697082860134925,-0.16879795396371314,0.23215166321976952,1.5261091518975478e-05,0.0,0.0,0.0,-1.7773666912690445e-05,0.008580792661871074,0.001,0.001,0.001,0.011713390086968657,1.112
59,1555,0.001680268523958891,-0.11512282004127844,0.6154777846519381,-0.10414330442799175,-0.19306792474759413,-3.141995621456343,-3.141592653589791,-1.2572660205244506,0.11578351303138074,0.8538751522605887,0.009387514722063684,0.001,0.004889354699289086,0.001000000013419682,0.007034055025824659,0.452
59,1556,0.07859184986932405,-0.09940477252906905,0.7858161893219405,-0.9710007052592144,-0.14342507770453228,-0.6144652255915855,0.6129936877086797,1.4024393445560113,1.7897092625761952,-1.5924034753212462,0.010449074590637526,0.0010000167564101483,0.013720001619481267,0.003878737137827871,0.007669938497758094,1.176
59,1557,-0.05006329676446963,0.14752925848592707,0.7428559876250143,-0.08160556004498737,-0.11360896950570917,-3.1416885000804977,-3.1415926535897922,-1.4288708585387169,-0.08686431300038122,2.2149306987229744,0.009876429591703885,0.001,0.015933556915857967,0.001000000119922683,0.00803005823710688,0.464
59,1558,0.08467549025490612,-0.12910102483294486,0.7967276627069291,-0.8251830966855656,-0.1326868409144417,-0.5296520992772665,0.8033295270089544,1.4031044673674973,1.7756830813693245,-0.07368866633259563,0.009256837125858853,0.0010010820592738492,0.020352975605202557,0.0038444546305593102,0.009541869965853057,1.272
59,1559,0.16627875797505848,-0.08826177027152574,0.68203445847525,-0.09506308377910819,0.027070092588647038,-3.1430697405580004,-2.9588664339907638,-1.4829937910100652,-0.16829960640524597,2.482392901982357,0.007490463397180755,0.0010853551275470377,0.01666797868193024,0.001000001232931951,0.009890060614174924,0.48
59,1560,0.03851069043561717,-0.049298211100278724,-0.036117381489452725,-0.02047044795144837,-0.06463450331922738,3.3020237154429686e-05,0.0,0.0,0.0,1.5010946212423715e-06,0.0098476765415081,0.001,0.001,0.001,0.010394784328027441,1.312
59,1561,0.017671199371394233,-0.13256153373418253,0.6904490797861842,-0.0751343544749652,0.0028342337450397645,-3.141955592047466,-3.1415926535897913,-1.4592681850453684,-0.2427279093503781,1.74085901160284,0.009536553550644157,0.001,0.017934708160757346,0.0009999965634558952,0.010327304687803808,0.46
59,1562,-0.17350546334762199,0.7959249591029097,-0.9632064908489741,0.12833222633007035,-0.1153002466280659,0.9267100425854586,1.4819676178409806,1.8274623932899692,2.9088822671974084,0.3263975452754415,0.007352506400900971,0.012527398703822887,0.003547492384106467,0.001128445654352105,0.009221425948503876,1.352
59,1563,-0.018106401419154053,0.11744442535517362,0.7241346040804414,-0.07825170673846016,-0.037924401322387384,-3.141856973277677,-3.1415926535897913,-1.5402705498029818,-0.14436202570797213,0.5848636478928402,0.009672420533194349,0.001,0.012232610057041265,0.0009999985299670158,0.010239131736113861,0.488
59,1564,0.0883624776942509,-0.12655282004004986,0.8111233516113102,-0.8256004302540787,-0.08650946906541968,-0.49714109538273643,0.8995742557159758,1.4783529295121323,1.837801530775327,-0.0011511314739548447,0.009271244352439352,0.0010058709013589509,0.016332393489438483,0.0034550064872295575,0.009731829766047124,1.34
59,1565,-0.03617009189815742,-0.1233733209307922,0.6783131155359249,-0.09351365762431621,-0.13966142317357158,-3.1423996535958074,-3.1415926535897887,-1.5214130791696674,-0.3022113736112214,0.8345714680233296,0.008880260254151657,0.001,0.014583232203877071,0.0010000055686046052,0.008083604264488382,0.476
59,1566,-0.20417030067362388,0.7424375386673654,-0.8765107801273538,-0.14350143718923425,-0.15726011096942044,1.0352679050621805,1.5073744128797342,1.879217753104538,2.8977247713027903,0.6529868505748995,0.006897918939677299,0.014439766036849303,0.0033287613699537603,0.0011549364870501169,0.012077745970993604,1.312
59,1567,-0.0032385552803091853,-0.12592885777093393,0.7687822670482231,-0.05367258560144793,-0.06290287479664247,-3.142102700169049,-3.1415926535897913,-1.2857588506114008,0.021867234247185507,0.020888896387080524,0.009276998498796525,0.001,0.017384527299352335,0.0010000000102229336,0.0098117460721812,0.444
59,1568,0.047163499586611125,0.1520311753679111,0.016924135963908245,0.02641854728174797,-0.1762920195580447,3.1531614711061126e-05,0.0,0.0,0.0,-0.00030096872001408875,0.009369000702973375,0.001,0.001,0.001,0.01222115955124707,1.28
59,1569,0.014328197152356047,-0.16859635028718448,0.7511649904100732,-0.11402406220294849,-0.2111390172159312,-3.142164335708557,-3.141592653589792,-1.4072169067786953,0.27056778833716866,1.1991265893339076,0.009165600501898864,0.001,0.013900836158235919,0.001000000424632829,0.008720556018064303,0.476
59,1570,0.024055599469885447,0.14264380292713907,0.014638157131569018,-0.0192771084356336,-0.18732356762474275,1.2612961687585855e-06,0.0,0.0,0.0,-5.5423022372741424e-05,0.009975256444784654,0.001,0.001,0.001,0.013429170674491104,1.196
59,1571,0.029542446252171214,0.06978941726876539,0.5858002569182037,-0.03923516704135486,-0.11524185775985511,-3.1419476599066214,-3.141592653589781,-0.9687331782888887,0.6609114228008139,0.6582496314515924,0.009336011947460266,0.001,0.0010000706646234583,0.001000000027624153,0.009868981734734118,0.472
