Numéro enregistrement,Numéro battement,Amplitude 1,Amplitude 2,Amplitude 3,Amplitude 4,Amplitude 5,Centre 1,Centre 2,Centre 3,Centre 4,Centre 5,Ecart-type 1,Ecart-type 2,Ecart-type 3,Ecart-type 4,Ecart-type 5,Période interpics
60,1572,-0.0834674003817592,0.0,0.0,0.0,-0.06619071984556568,0.002054258011763287,0.0,0.0,0.0,0.002097367901299494,0.01039836045937821,0.001,0.001,0.001,0.01028028422978204,0.86
60,1573,0.07445241991756105,-0.09610144901610387,0.6960345460833463,-0.08036612590932718,-0.1581983078858298,-3.14127920647116,-3.141592653589791,-1.0804415574177981,0.6981317006867518,1.6967053175668094,0.010486802227245668,0.001,0.0010041598616840055,0.0010000030745378466,0.00956102695388132,0.46
60,1574,-0.10360446650971294,0.5863851742071453,-1.023434457007488,0.11704942944518283,-0.08247397037575846,0.318172259640468,1.2300387757326239,1.6760350190687952,2.6749857181651415,-0.30110196748818846,0.009818405921619379,0.0010232549782368252,0.01290458703083129,0.001619057753905028,0.009939985292476373,1.048
60,1575,-0.06367767119946138,-0.11193866081548395,0.7280392031162867,-0.08143856355545297,-0.20917249384648404,-3.1424103441117537,-3.14159265358979,-0.9260341885908355,0.8914160966972782,0.888041875044161,0.008487304982876349,0.001,0.0010001904875013281,0.0010000130554994593,0.007169956997608997,0.464
60,1576,0.0,0.0,0.0,0.0,0.0,0.0,0.0,0.0,0.0,0.0,0.009999999999999827,0.001,0.001,0.001,0.009999999999999827,0.992
60,1577,-0.04956656488099996,0.07992725694239552,0.7148526832621872,-0.11952789799635855,-0.22677384489131833,-3.141484611800597,-3.1415926535897873,-0.9063978767671967,1.0823974604642315,1.0773224208711745,0.010184332809505077,0.001,0.0010000844026139257,0.0010001260304378914,0.00966847812156192,0.44
60,1578,-0.17637374028768243,0.5975243984165941,-1.157663958924272,-0.061964504084694255,-0.14597389123538101,0.2852005402108202,1.070024636497174,1.5279314163014217,2.473439496806605,-0.3200075645761665,0.011199625020556032,0.001001474195493456,0.0203504484435364,0.00040999489425095405,0.011598661456455979,0.988
60,1579,-0.025718560487240583,0.12077867470428777,0.6761368718129044,-0.07926919630341013,-0.04657345609088875,-3.1418533635592674,-3.141592653589791,-1.0991245639553484,0.3375264834435489,1.930466402484522,0.009546450621569459,0.001,0.0010018408006641213,0.0009999999981339927,0.011302544837685875,0.48
60,1580,0.30025195673355165,-0.11148345524441887,0.7353130964377427,-1.0193955452661116,-0.1429687904873179,-1.1380180422572428,0.35855133546396895,1.0244323138836793,1.4639481605766895,-0.0664240098344519,0.010237721817652435,0.0010000000072523932,0.0010010779881118306,0.014220482479638506,0.010224045459126209,0.972
60,1581,0.025247404104344215,-0.08919613027413323,0.7468460998996289,-0.12244811857094216,-0.18178790528141106,-3.1416763547862727,-3.1415926535897865,-1.3981110648722148,0.04038036829806632,0.036341535510066275,0.009869964091660756,0.001,0.007621178079023082,0.0010000000003307077,0.012626106184137021,0.5
60,1582,0.12188661571809417,-0.11030754138699023,0.751451607393791,-1.08066233539823,0.13616601752394913,-1.1328547666504407,0.46961952037257426,1.1173691492004552,1.518112365647746,-1.265376620262183,0.012726185961314624,0.001000000396182115,0.001013604177225568,0.022739323978537257,0.013837202821923257,1.056
60,1583,-0.0790928665634416,0.06578532913478091,0.6604485561550176,-0.12711193691373945,-0.15839071355376522,-3.141165249097263,-3.141592653589787,-1.2566187038601124,0.14499658401183102,0.14424385922429842,0.010624174738885729,0.001,0.0011124591025727928,0.0010000000002896295,0.01409733842076359,0.496
60,1584,-0.018551212552369765,0.023451637528731965,-0.03524412035285591,-0.01055408971106791,-0.10567050095777736,0.0003694117797202467,0.0,0.0,0.0,0.0013162753495143979,0.010512722010928661,0.001,0.001,0.001,0.011218373578869107,1.06
60,1585,0.04425986800986383,-0.09876529285458766,0.7536487317832019,-0.11789429669967447,-0.1206411817039105,-3.14153702205141,-3.1415926535897913,-1.3465254887860463,-0.08490790954807084,1.4447182027722905,0.010070573700414294,0.001,0.019125696878981656,0.001000000419457108,0.013117751509830423,0.456
60,1586,-0.050499462496411046,9.71445146547012e-13,9.71445146547012e-13,9.71445146547012e-13,-0.04994132814184418,0.0006106184836916792,0.0,0.0,0.0,0.0006054055775348029,0.010160421295784079,0.001,0.001,0.001,0.01015501393785252,1.324
60,1587,0.05359811181186542,-0.10192845073907392,0.8409386756157098,-0.05253375550726155,0.020722749471605614,-3.141479363637134,-3.141592653589791,-1.3418673617771089,0.0,1.8738065035013554,0.010140497604732247,0.001,0.022105760755898263,0.001000000133888456,0.010529516346747493,0.468
60,1588,-0.14955083345745857,0.7748720623608423,-1.1341427632624186,-0.09612736051621569,-0.15312374441753884,1.025228840356304,1.5198914916950128,1.8708360746098758,2.619877614129722,0.6783415683607055,0.012207545661108666,0.019411742694799235,0.003500712883940311,0.0015715770541298016,0.014559053269174406,1.316
60,1589,0.02653116739588139,-0.016941554548472917,0.7795972516447094,-0.10740666660202688,-0.11166721011968422,-3.1415469640429627,-3.1415926535897434,-1.362642735246904,-0.07907899127697002,2.177107850748449,0.010104315741665494,0.001,0.01866128580739653,0.0010000001917117854,0.00900204820101151,0.468
60,1590,-0.18132042690538952,0.6989918776270044,-1.0684971105898835,-0.07299799317504028,-0.16286845307987335,1.0103555968824065,1.4594189905926354,1.830193891844002,2.6380347539262567,0.5128116674660097,0.013320108012257149,0.017643772675050663,0.003851758923072504,0.0014158980635851628,0.01396319319495169,1.28
60,1591,-0.06918520415775666,0.06750115459224226,0.8971170840270557,-0.07323452240699212,-0.042191268215897824,-3.141277373565533,-3.1415926535897842,-1.2795647113698805,0.3059508284809494,2.1271247886978326,0.01041600191005544,0.001,0.01791952709630626,0.0010000005741795928,0.011569682553965828,0.468
60,1592,-0.030001252993849398,0.08651281453886395,-0.012477611087413765,-0.014051522247426965,-0.12149940816580372,-0.0003743649483958778,0.0,0.0,0.0,-0.0012691453214638813,0.0107085981781901,0.001,0.001,0.001,0.011672592693703866,1.216
60,1593,-0.05199733586062976,0.08589529376547227,0.8459633461500892,-0.11652182079486818,-0.03776100871709479,-3.141369064950485,-3.141592653589788,-1.2955541859453723,0.4157990276437069,1.925546876141509,0.010313425693143042,0.001,0.012567394241844682,0.001000001274189504,0.011538196735681279,0.492
60,1594,-0.06154841683050875,0.0,0.0,0.0,-0.05351370068282171,0.0013146127928187505,0.0,0.0,0.0,0.0011941624959563332,0.010894041757850649,0.001,0.001,0.001,0.010787032882577608,1.142
60,1595,-0.07559749788556559,0.08878222754317153,0.8048093751541715,-0.0843288917279725,-0.10227764955081105,-3.141199724384414,-3.1415926535897887,-1.2793905950956468,0.0074622153291625005,1.2030349668850993,0.010512171136217397,0.001,0.013932591466054389,0.001000000018339219,0.013114361003380799,0.45
60,1596,0.18164678357894226,-0.11755455067925372,0.89527272623145,-1.0982465400740589,-0.18601490612077087,-0.7597308654474461,0.8166668887762755,1.3725180885930253,1.7551620932144958,0.018947518756796428,0.015542463016471981,0.001000624570841573,0.023034178264190693,0.005584916182952257,0.012724126374474938,1.234
60,1597,-0.055290892577773296,0.08448961740176353,0.7586801442818216,-0.11711579328861527,-0.21489573126713793,-3.141404517065788,-3.1415926535897825,-1.3190044906236704,0.24625310587322,0.24974381465176643,0.010251352358890782,0.001,0.017921655029588063,0.0009999995883491477,0.013475539127168574,0.474
60,1598,0.21282611809921637,-0.13014851645004324,0.7950126446270582,-1.0960669598996806,-0.1302323697322516,-0.5327910368746163,0.7722769334589421,1.3398758344162756,1.7286275421827237,0.3683127471022044,0.012732089262853892,0.0010002667738782658,0.01932490496936343,0.008775680494526164,0.013470678474156268,1.208
60,1599,-0.01820381102760224,0.09206848658169092,0.7587713081110827,-0.12908055322835973,-0.16829421457126073,-3.141824667094193,-3.141592653589789,-1.3053023182636228,0.33069396350543667,0.7930647300655557,0.009664302123827363,0.001,0.016861217286658018,0.0010000010822642782,0.011570743091455045,0.47
60,1600,-0.09482019613066245,1.3877787807814457e-13,1.3877787807814457e-13,1.3877787807814457e-13,-0.0877303620126776,-0.0015241862672300804,0.0,0.0,0.0,-0.0014266511650018446,0.011305603315537411,0.001,0.001,0.001,0.011196667933215483,1.2
60,1601,-0.05544969156407266,0.12281462344398619,0.8384399364606573,-0.06480033714048478,-0.16026438707827004,-3.1415784748614746,-3.141592653589792,-1.314604752901512,-0.030799927976350033,0.2436336280592501,0.010021588875488803,0.001,0.01415110128663363,0.0010000000035982328,0.011119846587692812,0.48
60,1602,-0.07757547914460881,0.10813261466277599,-0.020595937932077528,-0.014598540144377961,-0.09633797133298797,7.355002603348648e-06,0.0,0.0,0.0,7.110958729975024e-05,0.010883158428398694,0.001,0.001,0.001,0.011195691850066731,1.152
60,1603,-0.00030936205166175613,-0.0009206028458911028,0.7317587559854827,-0.09930864949337417,-0.07349548704580156,-3.1416260672266696,-3.1415926535897394,-1.2829159223889925,0.1653469817677344,1.0800968081077293,0.00995315499527828,0.001,0.006767585651889771,0.0010000000115174537,0.011865961349522098,0.492
60,1604,-0.20579680262748667,0.6803360793500293,-1.2423785858382443,-0.15040800835740153,-0.15265402824587526,0.2668209408879165,1.1960305094062837,1.6067734550311923,2.406256627177272,-0.2743407339969922,0.012780014414611974,0.0010529641918835255,0.022098822760095154,0.002166955760509255,0.01232978229484173,1.1
60,1605,-0.027932523300062663,0.05879097270399175,0.6664783165899455,-0.071484495129258,-0.13835846018466516,-3.1416318596669224,-3.1415926535897856,-1.2293084070271414,-0.05624334673945433,0.9586581704831334,0.009939199542068301,0.001,0.0010712031730976115,0.0010000000006132595,0.012998724998546747,0.476
60,1606,-0.16642729120089225,0.6080205853477606,-1.1593369621747194,-0.08715275760320144,-0.11559459465164994,0.5734719185070418,1.1800860721564368,1.5748277068638372,2.344217453501459,2.345018620474928,0.014265721199817156,0.0010352389355517957,0.025417374937204952,0.0004089278647366209,0.014036930003706273,1.092
60,1607,-0.006215347436879931,-0.044760116757071665,0.6754624470703425,-0.13853148711084012,-0.0727463938829235,-3.141677186607593,-3.1415926535897567,-1.1635516459158497,0.7147538838976666,1.6800066218351957,0.009853476285890906,0.001,0.0010114691824611157,0.0010000067063743448,0.012456342227203194,0.486
60,1608,-0.15688911362638025,0.2057095560505088,0.011311769319566291,-0.06504065040602272,-0.12320684896441325,4.163336342344337e-16,0.0,0.0,0.0,1.942890293094024e-15,0.01428101488626386,0.001,0.001,0.001,0.01188754919805769,1.02
60,1609,0.042711929263887026,-0.05733539301314329,0.7198393763599672,-0.10221985542760216,-0.1477097645737397,-3.1415219188580523,-3.1415926535897705,-1.1038025426607976,0.5434106211578766,1.0151509499928877,0.010114541768920888,0.001,0.0010033949043332093,0.0010000001750019574,0.009994463993553094,0.456
60,1610,-0.17265798696222873,0.17318526290999095,0.06317175450215606,-0.08894090508929078,-0.05841601723483013,0.0005956506175017198,0.0,0.0,0.0,0.00010286236569553851,0.01437616751257388,0.001,0.001,0.001,0.010321414794430784,1.03
60,1611,0.017927889463356772,-0.013993599954667528,0.7035314278531114,-0.08476204941839952,-0.1269841413303052,-3.1416036330038923,-3.1415926535897496,-1.1356144010657545,0.19065074151072733,0.19225106211534332,0.00997593722075303,0.001,0.0010089683647964967,0.000999999999484579,0.012745691883793804,0.462
60,1612,0.12507059874154353,-0.14285556949127848,0.6823392205043222,-0.9449523075341135,0.1440202196386279,-0.8575685562507218,0.657925162901446,1.2007105092061616,1.6409347332830373,-1.182878998604514,0.013026864452305399,0.001000004421810973,0.0010245663747461267,0.012914606701641275,0.013062891330921185,1.052
60,1613,-0.04085937365049722,0.06193866542434459,0.6791118648484249,-0.13252391452787848,-0.14252084721006128,-3.141300465539064,-3.141592653589779,-1.267488011847577,0.475998886876271,0.9385935398447132,0.01042122605553762,0.001,0.003893533860223866,0.0010000011243249387,0.013099480887168403,0.47
60,1614,0.16343182635039238,-0.13012706355114967,0.7120581633218088,-1.034756200654326,-0.19053211371204198,-0.8580010938201172,0.6634915777721171,1.2230497164885605,1.6349148457997755,0.10760435114766265,0.01375890931264538,0.0010000111424941496,0.0010861207827618227,0.017223725497197542,0.012246620131752773,1.112
60,1615,-0.013378150648157219,-0.07774597067776651,0.7515630360944765,-0.14698378158313138,-0.17506955836460453,-3.141966533804627,-3.1415926535897833,-1.3482048065532068,0.12141420883370868,1.7274257561070792,0.009438916728912962,0.001,0.017199427452864405,0.001000000046015275,0.01140782947205053,0.47
60,1616,0.1628539175441901,-0.1487960386343434,0.808912843745967,-1.023722439926812,-0.21975443156349242,-0.6955809781331994,0.7872725947718416,1.2640049907298407,1.653484049348334,0.311271932620134,0.014010983602139133,0.0010003609670094773,0.01593924496642954,0.019158812518751095,0.014220826991892628,1.186
60,1617,-0.04081148496986549,0.08937398073597455,0.7802473338448848,-0.10670689021310054,0.005771792814312068,-3.141480969623616,-3.14159265358979,-1.4344431774935478,-0.1721420631937457,1.836358229934364,0.010142307077680669,0.001,0.020498605443183084,0.0010000006359338056,0.010395276486411349,0.488
60,1618,-0.034950583894799346,0.01070751759646438,-0.010018777771569929,-0.009195402299322529,-0.03496355588453176,0.000632250253250479,0.0,0.0,0.0,0.0005550121351600999,0.010201873023032949,0.001,0.001,0.001,0.010162849320997742,1.264
60,1619,-0.0021149245038102346,-0.011421881106149915,0.7684512033037957,-0.13299154707125438,-0.10062700784632872,-3.141627167028305,-3.1415926535897416,-1.3474398490255246,0.021867234247260448,1.4371278257411673,0.009949337218940158,0.001,0.019927355938092833,0.0010000000850694515,0.012714294194043586,0.478
60,1620,-0.19365311635177893,0.8127114557642108,-1.0824317993409758,-0.2021318409841659,-0.14890991466495948,0.9078913234016104,1.4358192703459405,1.8319826018060967,2.3617601765216474,0.3052078012277081,0.015023208636162173,0.019134060899909613,0.0038858274681064656,0.0021575135280677716,0.012386230191786347,1.244
60,1621,-0.028368805489522808,-0.028368794326508184,-0.028368794325744573,-0.02836879432616124,-0.01418440349197636,-8.473988385993003e-07,0.0,0.0,0.0,-4.7580804421465395e-07,0.010000000633885687,0.001,0.001,0.001,0.010000000199958626,0.468
