Numéro enregistrement,Numéro battement,Amplitude 1,Amplitude 2,Amplitude 3,Amplitude 4,Amplitude 5,Centre 1,Centre 2,Centre 3,Centre 4,Centre 5,Ecart-type 1,Ecart-type 2,Ecart-type 3,Ecart-type 4,Ecart-type 5,Période interpics
61,1622,-0.13201362262517669,0.7384295248465041,-1.662022837081425,0.007674757038011058,-0.18775498789731468,-0.16479576578995572,1.0591654983590828,1.5573297472140348,2.4595750902959126,2.6382854079111193,0.009280772964162616,0.001000432564333519,0.032394380815306954,0.0005786768305518312,0.0070327664749014794,0.684
61,1623,0.030770026101279928,0.28633290426353675,0.9674722025987946,-0.0750720715778637,-0.13125129597577087,-3.141902459801462,-2.7834063177885806,-1.3521938766753092,0.1191125176725524,0.121533536820744,0.009547627281958444,0.0013896458017541016,0.025401642819504695,0.000999999951300761,0.01215343021015401,0.448
61,1624,-0.05990133284784729,0.8054303689158104,-1.5716029340157813,-0.0346918411338481,-0.1405874143917329,0.8933406282972061,1.432392853045826,1.848879890925386,2.7966245564347227,0.6045232023085793,0.010646477171468811,0.016852810420170894,0.014949546924287415,0.0011764853027823332,0.010435170362561958,1.236
61,1625,0.897843907543955,0.9251820987485548,-0.18915761006017173,-0.097837644598012,0.02913003475743852,-1.5419601254554958,-1.2319148409935885,0.15779689125250887,0.7316038005256444,2.56780185285145,0.0265162133558821,0.021655470821957765,0.0010000009412244595,0.0009996134875651643,0.010095084362341617,0.44
61,1626,-0.15420817262576678,0.9621133522537992,-1.6485475416900046,-0.05368045698329491,0.0008513977809883291,0.9258401768214229,1.4891904393264501,1.8737551934559373,2.601694228716423,2.6015087349245936,0.010938947104778647,0.017731042459331547,0.030958757762594248,0.000289946779747474,0.010634293644486105,1.316
61,1627,-0.0453632399291984,-0.18142636525169428,0.9859612833206151,-0.13475599303277536,-0.1319222940531525,-3.1429416276326183,-3.141592653589789,-1.2804875336540444,0.20175365667965106,2.4060813205522766,0.008072869034441528,0.000999999998468725,0.021954096942618885,0.0009999990214161194,0.007618154081503011,0.452
61,1628,-0.25091547734787534,0.886226900015737,-1.7061804453144698,-0.22852841440168017,-0.21627941888399585,0.9910055470390574,1.4683826868926853,1.8416233423065593,2.780490049871698,0.41450924999829253,0.005745824397767104,0.020129643554130567,0.03484396438053413,0.0013452370110038072,0.007045963137963511,1.292
61,1629,-0.30626755347560447,0.972133153557964,0.9368746850564165,-0.035832883154708325,0.12257394578666891,-3.1435092030782323,-1.4899223383190177,-1.2610740761054826,-0.27909365256655727,2.497098974860787,0.006011357493868285,0.023999582745181165,0.022868783038725117,0.0010000008820810749,0.007827906894731606,0.452
61,1630,-0.21259365130698762,0.8300418421669269,-1.88579061202418,-0.09322997848233702,-0.119204091410505,0.7194694899135147,1.485497850943208,1.8477098473468863,2.582381703538676,0.15599653453600726,0.013704598858194595,0.01881757562456418,0.040725835432359386,0.00027761787152993884,0.009175018714609141,1.304
61,1631,-0.0236156534323725,0.13551198352515056,1.0230798959686043,-0.04863309228110674,-0.09790848801651134,-3.141952838761771,-3.141592653589792,-1.3553265519636164,0.5169709429754878,0.5153825686034736,0.009434832234094899,0.001,0.018781042166431214,0.0010000006693443022,0.009058853427559395,0.44
61,1632,-0.23876507079727285,0.9505462105605055,-1.7742757636394781,0.03463601181622331,0.018367792359950223,0.09031526968262085,1.2732016913435433,1.7282205070692127,2.452354177495237,2.452269756799921,0.012038102968646115,0.012324514663811898,0.03408624021845706,0.0004353168863685285,0.010679191847706116,1.14
61,1633,0.021954212233093122,-0.12252018626558275,0.824636456257264,-0.1606079592965572,-0.14962902479687798,-3.14180998850097,-2.8393648905910576,-1.2825445626085514,0.5235987755151676,1.456442497883466,0.0096582422682306,0.0012768938755354222,0.006826181299452715,0.0010000026523684638,0.01108240148520674,0.456
61,1634,-0.2072026275365416,0.6377819072761479,-1.816110962863813,0.15586098354053687,-0.06496827058578013,0.540158681574531,1.1840099173673908,1.6223640204832988,2.77757992859206,0.09585627326599014,0.01384021661818331,0.0010531342603811436,0.04457013879725079,0.0013947305716643646,0.010692078855335059,1.124
61,1635,0.028430382832223676,0.10956614268831845,0.7997208256066051,-0.1671629919527636,0.09786212198250924,-3.1412687210360644,-2.7907760696687065,-1.258296933036183,0.34165861749882465,2.4406578280207927,0.010535941502990516,0.0014392652824737609,0.0010509485908101182,0.0010000000247878107,0.007987090668561915,0.486
61,1636,-0.19157947106680862,0.5646879807615998,-1.6641226414623504,-0.15710697793010714,-0.20566784444818356,0.4280451606088155,1.1601024038203458,1.6302611443964445,2.4135198222873004,0.1226751705433461,0.009593446830428272,0.0010057529170888193,0.03688554658311906,0.001096949506808719,0.01128762160840245,1.026
61,1637,-0.029682584315536584,0.10614848166910096,0.9886644595328825,-0.08155724981000483,-0.11091100869239563,-3.1417346728506614,-3.141592653589792,-1.3311298868209693,0.3473117506508401,1.43552776126082,0.009783674241191738,0.001,0.01668564813700321,0.000999999868179057,0.008497825733547,0.452
61,1638,-0.12141849932509982,0.7755865275373192,-1.5313428244379652,0.032456450944387996,-0.062142150397645514,0.5685633860857277,1.202193792229246,1.6178317952446635,2.5057348677805225,2.5054339610183316,0.01019345890255578,0.001497464297797845,0.03655348872020947,0.00038837631341684533,0.009618756442583655,1.136
61,1639,0.05866866231687775,-0.11083196260922198,0.9326296610833998,-0.06488279795838704,-0.20016521488904646,-3.1415402681414846,-3.1415926535897913,-1.4216354610748765,-0.21640424454317653,0.6610044774888866,0.010072940845887819,0.001,0.020591798532500538,0.0010000001516547999,0.007004926307211251,0.488
61,1640,-0.2483626031818595,0.9578557664179149,-1.655727957794977,-0.07134124314478216,-0.006445581649081059,0.675203898636515,1.2863251979046182,1.690895324160395,2.485117326436159,2.4851165189713553,0.006123651602347633,0.014254386796119014,0.03337520563194709,0.0003477262668664662,0.01095714634259652,1.2
61,1641,-0.004630817643026903,-0.12879867295596725,1.0232098439386563,-0.1026045993217957,0.17019213117136037,-3.142132277669818,-3.1415926535897905,-1.4850201143232655,-0.2868410689572515,2.020412477513856,0.009317291184261318,0.001,0.019977854296191554,0.0009999872697395431,0.0066587969038185875,0.484
61,1642,-0.21695511033245105,1.0435075700908811,-1.5988245102437633,-0.058830735438917765,-0.1414797431881981,0.9382982599436362,1.50404259184999,1.865729350473567,2.8376144464810964,0.6070856646286993,0.006366911546544114,0.021564558950002373,0.03676492839136446,0.00019351722559815505,0.008323886586982061,1.356
61,1643,-0.07466693786484094,-0.15710439668997786,1.0154681406301551,-0.15339043617191175,-0.06429538219288113,-3.1429632252287028,-3.141592653589655,-1.679364508390292,-0.29735238443095413,1.7715835390350487,0.008281879136941657,0.0009999999999619749,0.016540196331259534,0.0010001061297444372,0.010953016247472564,0.456
61,1644,-0.2240436818731691,0.9521237683669361,-1.4029402960306212,-0.2917654242780083,-0.1500610190524218,1.0744918793060434,1.5702180876058511,1.9037339769315793,2.5030575621229354,0.7185701450572052,0.006514516206165298,0.02380012854833432,0.02105709421905126,0.001704416959734222,0.00833987933238074,1.488
61,1645,0.14194068867080156,0.2157643448478466,0.975828948348564,-0.11113112393719891,0.010739153153678368,-3.1429371648071656,-2.469253137489125,-1.5302055100591563,-0.05927533323824388,1.2581495770949074,0.008017487286629361,0.0021823592317882948,0.02312664764248884,0.00099999741728679,0.010270901588744037,0.488
61,1646,-0.06681229502044686,0.8829277022288925,-1.6845605567851312,-0.2799799251688667,-0.11500766306670858,1.0301533674763594,1.527215395012358,1.878829104595591,2.582495656110073,0.5524790581093408,0.010633649451905437,0.012982724420485316,0.04049566105992835,0.0016038488351975402,0.010326846223597487,1.416
61,1647,0.21021556556012702,-0.23198575082313425,1.0214092525961391,-0.129487811113358,-0.01658596014012734,-3.143322026319969,-2.960881571746132,-1.4744504726377352,-0.2565980757353227,2.5037143430586783,0.006919977618710556,0.0010813691251710935,0.02523196114192583,0.0009999930302124751,0.010828281769961574,0.476
61,1648,-0.0020433566666478173,-0.15306814252186202,-0.09749641668777001,-0.022075055190195737,0.06557529521167292,1.1102230246251565e-15,0.0,0.0,0.0,2.220446049250313e-15,0.009850425101966638,0.001,0.001,0.001,0.010236419718510177,1.34
61,1649,0.052813356031704506,0.2387157249524465,1.0128100064607701,-0.08177149684252286,0.04286446462632731,-3.1436348079616705,-3.1415926535897567,-1.4868324439596812,0.013962634009391954,2.1088778025196215,0.007376446887815315,0.0010025891908345122,0.024820578145956576,0.0010000000537864198,0.011415118704480682,0.468
61,1650,-0.20420091682337527,0.9101092474896988,-1.715436424593477,-0.07867448639896416,-0.03743253269876414,0.7688751179764655,1.4155014646033444,1.761189474591316,2.46663925534305,2.4666378024098736,0.006805833691798524,0.01589236331887872,0.03520934477004591,0.0003291249153115627,0.01111845246876973,1.332
61,1651,0.3095606307504028,0.9493168288783623,1.0120477509192911,-0.0682251017648482,0.09637054829417757,-3.14351351967399,-1.7484882205725556,-1.4080917139085847,-0.00709163126966347,2.744281132063656,0.005994387639795495,0.004660918035519027,0.013685558765238776,0.0010000000124766864,0.008467111188073346,0.496
61,1652,-0.2516832554251176,0.9024326843710107,-1.7452667505200183,-0.10132857839083713,-0.14398026864386057,0.8558796494215913,1.4176809968835964,1.804633313771753,2.5785142799929615,0.21169710437391115,0.005838004563242424,0.020279321363174174,0.04635877864609559,0.00027724275548685013,0.009477903388753579,1.276
61,1653,0.32980465773524925,0.2090247853539737,0.9798330463986038,-0.086378626727473,0.18037877506079114,-3.1434419353722713,-2.9384411655986553,-1.3443708603029472,-0.1592512405119607,2.605314938120895,0.005858177762435544,0.001112457287932688,0.017177736665237905,0.000999999698659381,0.006468664278510726,0.46
61,1654,-0.14055358831186393,0.919878642534276,-1.6977941106312644,0.2981904281542732,-0.11102306154567822,0.8549618141929007,1.352721834771467,1.7316491590568346,2.6979053084362468,0.3411226452802452,0.008030623832426627,0.012819355770152531,0.04363746415044441,0.0014732802648035883,0.009068120332899427,1.276
61,1655,0.06275662309561064,0.1895798956191112,0.9726959482425203,-0.1725282160439242,-0.1885348027625918,-3.1432248163933636,-3.1415926535897523,-1.4334776638815026,-0.2238836144376124,1.5652960996670962,0.007679049213872154,0.0009999984568727074,0.019914910871439755,0.0009999984675125298,0.0065426683913778995,0.484
61,1656,-0.1692176381502462,0.7393886895370694,-1.6952660614401984,0.25387503401915,-0.1701784312547402,0.680342420446475,1.402242213061338,1.7890582496434642,2.9224117707812036,0.21415733858717695,0.010339006970482107,0.012622860489181783,0.03896140784080339,0.0011308726345444766,0.00914237742677691,1.256
61,1657,0.17015873642027615,0.22896664098554148,1.0815971895380292,-0.10832722904390761,0.0009448069463652072,-3.142996925187718,-2.8664166547361734,-1.305921441912958,0.030500899549310734,1.5711492824280828,0.00736065911932358,0.0012148462434034548,0.020916088406026195,0.0010000000041694426,0.010538890203098767,0.472
61,1658,-0.13182827565371022,0.6903062187917618,-1.9616192088798499,-0.36148741293626274,-0.082737440588269,0.6430813773274662,1.3446978518022306,1.7646451343522696,2.692793703076969,0.024678550619584294,0.01030380619405284,0.011391719968757787,0.04614315297108455,0.0015841844515233619,0.009673847708302858,1.172
61,1659,-0.268925993709999,0.18113918427785847,0.9988016332473139,-0.14705839145054714,-0.050620146298756705,-3.1433490620671547,-2.78462146230706,-1.3653667656157216,0.32755942354747025,2.233270153962034,0.006326921517109895,0.00018036963892725718,0.013419379915263248,0.0010000016716125706,0.009702454818616797,0.456
61,1660,-0.004626634916348926,0.8534480625204935,-1.6858592633540106,-0.25784544615011673,-0.14475477189681338,0.7565687949631612,1.2763097853058587,1.6921014803972583,2.4272631965389055,2.4282898202161234,0.01016256470041786,0.012739727288530244,0.042902102678384575,0.0019737335635675868,0.007212199970436503,1.236
61,1661,-0.023916416860716404,-0.23057309947604268,0.903672025782032,-0.14522266175303958,-0.17819916540941083,-3.1431705372815633,-3.1415926535897922,-1.3609743135080727,-0.3187122981718088,1.3528675018808156,0.0077355039062128265,0.001000001653100712,0.012755249291721584,0.0010000007242731415,0.011959080293897735,0.492
61,1662,-0.10642633721158049,0.9923801466114922,-1.8987136866372485,-0.10463844030689737,-0.057860406487936965,0.7435520462452014,1.2789331841913243,1.6946657535777718,2.481183078379394,0.33143570984905246,0.008768150946300941,0.01613716141343017,0.04267071115322092,0.0003398539158567802,0.010088944011226826,1.164
61,1663,0.045286726239661214,0.18272477333164636,0.9983565444504343,-0.0685243351583902,-0.08568372495246492,-3.1428646271202747,-3.1415926535897922,-1.2997396742637526,-0.030649684425214818,-0.02911919967450677,0.00802528440807508,0.0009999999998914757,0.015394409894625774,0.0010000000021269098,0.009601288783885149,0.472
61,1664,-0.0792967625151683,-0.19209767522204813,0.009656476215314158,-0.13267813267880946,0.1565956397928113,1.608167373462477e-05,0.0,0.0,0.0,-2.2340203572612793e-05,0.00880511305019825,0.001,0.001,0.001,0.011092888043764777,1.168
61,1665,-0.003143534258401724,-0.1300584602822494,0.8500504597156275,-0.13283453511755874,-0.2236794114097773,-3.142072062880679,-3.14159265358979,-1.198622351748579,0.4308917604930975,0.747603434903077,0.00925766066889276,0.001,0.0012107413542401515,0.0009999990505292202,0.01368474055568984,0.46
61,1666,-0.33490592243546996,0.7935339497849262,-2.0840227981613966,-0.16206821524553913,-0.1056676550020065,0.6319995899408809,1.202839478040617,1.617362110682502,2.356456937953096,2.358152336940214,0.01222658745539988,0.005220733777891982,0.05350904165683114,0.0022390022325023003,0.009152195623921095,1.144
61,1667,0.03731247098076535,-0.10571622002375564,0.8962461916251772,0.03805719871184063,0.1140855526362913,-3.1417005224942596,-3.1415926535897905,-0.9617120341405397,0.48543559953427506,0.4833001874904945,0.009798969528358277,0.001,0.0010000669143318533,0.001000000000831557,0.00902071728466662,0.492
