Numéro enregistrement,Numéro battement,Amplitude 1,Amplitude 2,Amplitude 3,Amplitude 4,Amplitude 5,Centre 1,Centre 2,Centre 3,Centre 4,Centre 5,Ecart-type 1,Ecart-type 2,Ecart-type 3,Ecart-type 4,Ecart-type 5,Période interpics
70,1830,-0.09612387368129785,-0.06598478064269411,0.6268192959003576,-0.003538093552486788,0.008099426661532728,-2.5919345762827923,-0.04393835879146499,0.6151370230805191,1.406027481353715,1.4058976004043344,0.008129032327766237,0.001,0.0010000000000091594,0.0009999994803273618,0.009786048965466946,0.53
70,1831,0.0853692070482911,0.15805496861591445,0.27382350071466455,0.022656291504405682,-0.159989569302109,-2.8879348161823053,-2.0165845225159473,-1.0049475031954351,0.35308966423631655,1.1643845605074976,0.008147417893320267,0.0033089180901293355,0.001000056588690331,0.0010000000000725115,0.009375384629546025,0.464
70,1832,0.00320396823135859,-0.17036384260385623,0.7760533413353787,-0.02107016735537811,0.3909994414534947,-2.972065169208931,-1.0410393729858225,-0.684201684136797,-0.07946696758833006,1.6470963713723816,0.010060810369857216,0.003175885313380938,0.020931857677466276,0.0009998071870074834,0.018081893935972954,0.924
70,1833,-0.16651922909033992,-0.030191481338417692,0.8869467978632822,-0.019760866077695064,-0.05907751136158778,-0.8902997201711937,-0.4242808667016531,-0.04637086203073314,0.5700439790712001,0.5705988314280935,0.011858146890317096,0.0011040353521416376,0.026432115858161874,0.0009434155835565525,0.010924999202925638,1.448
70,1834,-0.16913890850873384,-0.05234343097282375,0.8326585266330462,-0.043832128295596656,0.3226247747968342,-1.6663472961299557,-0.21115057547199517,0.07398660208628915,0.4696504410495289,1.985880008141998,0.012828333123081166,0.0010712513581328095,0.023835985745743405,0.0012689849501197328,0.018563080560793463,1.484
70,1835,-0.11656095025549323,-0.07364343197571706,0.871534662302937,-0.058648615297841857,-0.023634275883567684,-2.8890272753136874,1.162304268202124,1.6240487115119773,2.238462116770352,2.238481783372559,0.007146219108328729,0.0010862597407118304,0.014931242293400952,0.0004483938772551393,0.010719321683606937,1.432
70,1836,-0.06967696717176272,0.21819999765048903,0.31725859377423243,0.16824612279090098,-0.05688241064745998,-3.142183866460054,-2.445469754583323,-1.112461954431807,-0.27589057297813857,2.6256467749461785,0.00885418675448303,0.0022883420896618193,0.0010004911861678503,0.0010000000003035072,0.011710716667542266,0.46
70,1837,0.00849636709373934,-0.14631672981976643,0.6664392320789436,-0.16822709918486425,-0.14408568482436246,-1.2076155433202056,0.47922599800507065,1.10044482049536,2.287562487434292,-0.6367493760348815,0.010534733165305605,0.0010000000127928224,0.001000951039322572,0.0026430114250516213,0.012007354184524434,0.952
70,1838,-0.15497345438669202,0.12881748131556564,0.23316083491409792,0.01658211374177644,-0.01153905427472667,-2.724436658351754,-2.2516393463270634,-0.8353367748474876,0.12711646575218516,2.088326325897868,0.015474042440125511,0.0012352532516389922,0.0010000032214696883,0.0009999999999990286,0.009863175498446937,0.464
70,1839,-0.16525780599447001,-0.11668740648150262,0.7622228958679619,-0.045648834595784074,-0.10934219845663244,-2.9342564101509994,-0.9912594723854433,-0.6519143015595722,-0.2508910109596152,-0.24982683368422054,0.008202829476814623,0.0033210323024275156,0.01661399119407353,0.0010005541926721697,0.012644059553598873,0.92
70,1840,-0.08195290389199125,-0.06163055074115904,0.8475906325316992,0.03135812173124577,0.30718495658069367,-1.7765198996538127,-0.33900339750496933,-0.02391989984363388,0.456555724928308,2.0100226967761476,0.010323929270554628,0.0010799239401391011,0.018962026018758828,0.000964561939121699,0.019180731182619017,1.384
70,1841,0.1446015601735031,0.014975196547344844,0.5940071931523061,-0.057598088186706684,-0.08490114106118213,-0.2410352502100679,1.1325925315062058,1.5905140995643698,2.291501602930708,2.2929665323462944,0.01102573020580022,0.0009933069418104476,0.011176499837662574,0.0018366185139308672,0.009575548738137802,1.396
70,1842,-0.0392932608131832,0.1778369003370625,0.2598656156952178,-0.04136581583340748,-0.10393779124941807,-3.1411606225022415,-1.5422339678123729,-0.856797996413748,0.24751942119192039,1.1029216292291302,0.01078428561603245,0.001017902954830562,0.0010000008711662641,0.0009999999999991674,0.010716197891650304,0.468
70,1843,-0.13471621774076345,-0.10075018688700557,0.8028798790597441,-0.0036433125508149294,0.25676516351072665,-1.7111252216801318,-1.1647745351357364,-0.7759435177010274,-0.4743079901136343,1.6121467262154905,0.01246273467662022,0.003150885904982829,0.021355406641098973,0.00099971021831989,0.018900371149572652,0.852
70,1844,0.12926577025408392,-0.03106810774991085,1.0012529197281332,0.022509083354709927,0.03143759489363191,-2.5456110716442564,-0.33738823776101357,-0.06562703128725116,0.3724254592033598,2.9133724208358536,0.011959320489310808,0.0009704663427703423,0.026324645190423594,0.0010388660448696898,0.010957109800709295,1.4
70,1845,-0.05327362205782491,-0.06551468922551139,0.8556659681914677,0.010429620914297583,0.29379651245851357,-1.5039102127417572,-0.29731034345336094,0.022526440688030433,0.4266300346987477,1.9783244672421199,0.010184241193954514,0.0011803174458332724,0.02353030269219167,0.001023610320485784,0.018053774398764516,1.468
70,1846,0.06711093572359256,-0.0236837347011519,0.8065758759938484,-0.009266372393345754,0.3631836397280267,-2.836519838418387,-0.2563720512196938,-0.004803842750829759,0.2737467422082535,1.9770045357874855,0.011620304413534092,0.0009823085939383571,0.022346855052206505,0.0010102591484584663,0.020494970602989118,1.448
70,1847,-0.07903049049487468,-0.06460367951960753,0.8980054898668699,-0.0025335074519794026,0.09889042090001357,-2.1697529497997237,-0.4374099463365408,-0.00877284228940791,0.27128008366995526,2.852095575520179,0.010933493029478018,0.0014436888212572265,0.024496724834569696,0.0009979005430014723,0.01310609921964921,1.444
70,1848,0.06744719600049229,-0.1623802133409885,0.6792331633040679,-0.10410995277355882,0.055475894060092006,-0.7755179685173719,-0.23738351096143395,0.06704296250806444,0.3181300118693134,1.4742261971092863,0.010734098779361335,0.001590885498895563,0.0142259717578501,0.0012562719598080826,0.010280728954882466,1.428
70,1849,-0.17638156474764372,0.031713622711950815,0.9923489200015474,-0.028000915889808336,0.44363617617078627,-3.1423725047275455,-0.5101475473234233,-0.06195286261489855,0.23270685473588745,2.110603002284261,0.009727470852802676,0.0010982233982329411,0.024064924831818317,0.0010158387905224017,0.02416976636738427,1.376
70,1850,-0.14536409426464975,-0.0681517185984825,0.6786483525833427,-0.00798177384657786,0.19311123460157453,-2.6825235408718977,-0.30692088908050136,0.043406996864033,0.2708259940546044,1.4796544430084038,0.014073164771384273,0.0010781833695463058,0.014315796650761286,0.0010052545168200552,0.015583112261818117,1.432
70,1851,0.0010290651861836692,-0.14558319000967734,0.5878332475246625,-0.051549519623992714,0.19641792866804192,-1.4375072826691462,-0.32365793571192325,0.06650011462546376,0.33319444604985815,1.294527623607459,0.009975707735539003,0.0011050027642571228,0.0024981590562315734,0.0010240807671539334,0.013361400433438237,1.354
70,1852,0.11119882687834926,-0.027940139966763596,0.5895498717355758,-0.036340365280879014,0.3236098021225256,-1.6776296792526937,-0.30245256464581227,0.009755575940261947,0.37074905649607726,2.163522043044744,0.011367326985103716,0.000993706602580204,0.0010910702175402345,0.0009883272925634004,0.019517405300906968,1.286
70,1853,0.24040785616401564,-0.015644120852898843,0.7753181179261034,0.08634754272905039,0.19413403727104311,-1.317924991254231,-0.33728851001697824,-0.04802934996424482,0.5203424714679605,1.1268985434122825,0.016947683399460414,0.0009948005609982926,0.005025577440591732,0.0011745236643525827,0.01583431210522023,1.288
70,1854,0.1019026724040536,-0.059909346654612346,0.8720608717524784,-0.026678173725779155,0.30717774004352477,-2.499425591918995,-0.34395719770829103,-0.09628068681502924,0.215552664420967,2.049290829580508,0.011417757601725502,0.0010609205994289708,0.01984212901424088,0.0010117055881666828,0.019091142835506968,1.32
70,1855,-0.00025373976218968946,0.08619593946788161,0.9210836191715143,0.11704265823271799,0.22324329181204952,-1.1878436492370632,-0.3897928065082993,0.0861727342675754,0.4170815305404426,1.371714252467786,0.010001242441760342,0.001164215652721303,0.020824734074462316,0.0018101164750233536,0.01397782560954154,1.42
70,1856,-0.20529960263508232,-0.07110020123027568,0.6414016926802608,-0.03675099805232218,0.0727004857086195,-1.850813241705127,-0.3279467005742146,-0.023691686467624068,0.2614012616527702,2.8470040997272688,0.012846826000587437,0.0009762999323095482,0.004429298814110747,0.0010107157894928267,0.010386421030685418,1.32
70,1857,0.02541408683968359,-0.024267041772662538,0.9172354190866332,0.03097164857197363,-0.028011053657272536,-1.7879737450830773,1.1326822568226977,1.6136420044989639,2.286901590638268,2.2867530509562,0.009696333889842616,0.0010051261433987177,0.016233206510216813,0.0004903006539739948,0.01006024116088691,1.324
70,1858,-0.19918720124323772,0.20279844419875867,0.23887315357220218,0.03153483348427248,0.011008143231277343,-2.67882454360741,-1.8158533412810047,-0.8083630219413005,0.07348754745239283,0.7353258771641777,0.010325206686887618,0.003925286777053002,0.0010000013843190483,0.0010000000000002082,0.01017695084954538,0.44
70,1859,-0.10332214508397819,-0.051259840870354824,0.7071944843268837,-0.00923710400093753,0.2465104321268668,-2.643064657500647,-0.9918053359426122,-0.5584582176920541,-0.04986654576873753,2.165633545304976,0.00927924829841306,0.0009293933540666508,0.00874666212417251,0.0010000198998562073,0.010142193295423442,0.928
70,1860,-0.0004446337865917211,-0.08418819589809622,0.6011533786991721,-0.06298582600668026,0.2475348272034512,-1.1798958628304954,-0.1942732128542028,0.0897618121924878,0.50698612359768,2.2980985636365854,0.009935582853583562,0.0010224286116456973,0.005614233918869214,0.00111430214631368,0.014970844366001225,1.34
70,1861,-0.013457688249957935,-0.0333228734202679,0.702681422510509,0.06623221751217136,0.29966517012325156,-3.00521596473377,-0.3068516820484892,0.053566778602139056,0.5211446359360579,2.0976746670215056,0.010067129951299046,0.001009228790331245,0.0011820514946517665,0.001083036932921679,0.019623984092866607,1.308
70,1862,0.04469428867658567,-0.025725411861140586,0.6879508682882666,-0.011098853101741232,0.16513569158248784,-2.799253891091138,-0.26179893140149724,0.040275110925485316,0.6343576424578872,1.7506481860683472,0.010231756562709372,0.0010031487624163607,0.0010453425024140447,0.0010113443504150962,0.01448514237900332,1.272
70,1863,-0.01905578848890651,-0.14344026043100958,0.578550798154746,-0.09509620606410726,-0.09670672064205607,-2.366771306646087,0.19975442997177084,0.587152833291478,0.9503540678868835,0.9505501751546759,0.009912461024715073,0.0010002300691953616,0.0010312924305126417,0.0009594640735752633,0.011156355525663115,1.228
