Numéro enregistrement,Numéro battement,Amplitude 1,Amplitude 2,Amplitude 3,Amplitude 4,Amplitude 5,Centre 1,Centre 2,Centre 3,Centre 4,Centre 5,Ecart-type 1,Ecart-type 2,Ecart-type 3,Ecart-type 4,Ecart-type 5,Période interpics
78,2053,0.0977172644251637,-0.09483182667695195,0.8090185677354014,-0.35416712046675264,0.42987421891723454,-2.224435420044502,-1.3078220656133692,-0.9744992697138529,-0.6663896718458444,1.6542414462294213,0.010135738557673314,0.002942777923153081,0.022394756911380823,0.0010548148157925727,0.02436850010929628,0.654
78,2054,0.10456663613943985,-0.03495823758751961,0.6775652464161391,-0.43978009625644005,0.41190018207164736,-0.9599672255633288,-0.2535035951309036,0.00028273533053874145,0.23284411219212536,2.0630056529730427,0.011241738726275345,0.0009842993327051066,0.013358856808374594,0.008924434961322019,0.023277389611950285,1.388
78,2055,0.05466163081692429,-0.041052744023717634,0.6032178138601412,-0.4634590596088932,0.3704555995176853,-0.9437216915152863,-0.2234188354293955,0.013640219802493296,0.2510851142889483,2.0923571335732487,0.01122541949421507,0.0010215245274634568,0.010427547092737334,0.010351696099570972,0.022864155772335373,1.384
78,2056,0.028517917579771387,-0.15944924498248708,0.4258562209075654,-0.5207480110458986,-0.607731602346295,-0.9375733085000033,-0.19692531148812617,0.06561905105164198,0.3094801994360621,0.30888168677124994,0.010197099834076016,0.0010661389802743967,0.001330253868109226,0.0009219671428300067,0.03095401476985457,1.372
78,2057,0.04727582454126623,-0.06688608027332563,0.48221968325080966,-0.36350225357258353,-0.4718603546559364,-0.999211112258371,-0.2882156092212729,0.00960624899856597,0.259386960409441,0.25993955664297175,0.0100860963238088,0.0010226525040244313,0.0011046965523124333,0.0010333627992799707,0.02356453722352518,1.312
78,2058,-0.005157284016672815,0.0785747377877974,0.6341514741669306,-0.25368988491029726,0.40110801113665817,-2.959886780125572,-0.43511932100058703,-0.014334157035824462,0.2342818058737135,2.0978983199893904,0.009988156922993595,0.0010804439404161056,0.0015410130078121328,0.0011267572842918174,0.02186672152470626,1.304
78,2059,0.06510819231245893,-0.05953108285439159,0.6024287355704513,-0.40665953943610705,0.32590161692373554,-1.050265619445457,-0.3160101788446759,-0.06487323305493048,0.17613625693722987,1.9882836623753115,0.010267897051006265,0.0010375385123638217,0.008477843300955919,0.005560853451378095,0.020175914220505083,1.324
78,2060,-0.06718032819233587,0.7917553875212523,-0.5092569727477665,0.31581766201858424,0.3634675518365504,-0.39442801440437125,-0.1499967223942826,0.07137664069055714,1.8070588827312581,1.8056905803682253,0.010227949221036812,0.021121993194380545,0.01194792812330447,0.0003623987496817886,0.02308804038584507,1.38
78,2061,-0.120746540703252,0.6955657263298658,-0.456628467224541,0.3261104055718258,0.40416572448719956,-0.10221168527601096,0.12818295165071797,0.3542480764763886,2.0677246244258947,2.0688848464226806,0.012084293715254558,0.018944668356825484,0.013675131839590422,-2.4054428024750365e-05,0.022133314533868242,1.52
78,2062,-0.00432452748369697,-0.0588807038131372,0.671250566856878,-0.4422944882263787,0.36464374864704974,-3.010510791675373,-0.29272653729363973,-0.06382605152794961,0.15735675950901548,1.9007722223319938,0.009994439005892404,0.0011045682252902997,0.01650028602817765,0.00843445548549786,0.02012246874550603,1.408
78,2063,-0.0439847053793138,0.7632052998697263,-0.405498431359822,0.3331538176411794,0.38855133145442006,-0.2656776255735708,-0.03830563976502502,0.18522804907896456,1.8842876134074784,1.8856276618924432,0.01000578682371747,0.021189706358268404,0.0076217282576941815,0.00047232023371546346,0.019861447317207362,1.468
78,2064,0.010920231105289674,-0.05808705770417891,0.7651474113717611,-0.5108551564499184,-0.014483526075549149,-2.910790145720719,1.3592441312951775,1.7153482233175514,2.0586715209527338,0.8464944407568856,0.010147743291471873,0.0008877238605879404,0.006175110455315891,0.007969742710759148,0.010163930228279478,1.512
78,2065,0.006738758654397966,0.1065609462342933,0.2905807737117036,-0.0218714340675405,-0.15025700026177974,-3.1419608156860117,-3.1415926535897896,-1.3042069879913782,0.3034958960386537,1.7129818954485732,0.009395206459327883,0.001,0.0010352830633644497,0.001000000003545636,0.0077550845494028416,0.436
78,2066,0.12415219182505152,-0.08578146726396078,0.49428788526901485,-0.5080527775502706,-0.11877268556278572,-2.894671581312485,0.8388545845713063,1.2993916836753505,1.7398573208785755,-3.1426160852763556,0.007620598902600249,0.0009999687874932542,0.0010691586458805016,0.00396520045073619,0.008043595228759233,1.096
78,2067,-0.028796728831843994,-0.10288603750734548,0.3056447358988073,-0.017005801812515133,0.035450762527392425,-3.1421469770461945,-3.1415926535897816,-1.1780969507831722,0.4439207010507986,0.8193962877380346,0.00902168645857025,0.001,0.0010031245808501668,0.0009999999953524677,0.009914039713528567,0.444
78,2068,0.15880662124187628,-0.06542787988660664,0.514805123244511,-0.5321420278885511,-0.15909145044325157,-2.8809434861355965,0.6422040231147698,1.3191189328080148,1.7951034824882606,-3.1427183759157695,0.006949190845061694,0.0009999997742908264,0.0010233482917563754,0.00889008947016319,0.007622762641508866,1.028
78,2069,-0.013084954453102746,-0.15917680946853846,0.3324840518325563,0.008930501257704726,-0.11198003594834546,-3.142343470618297,-3.1415926535897922,-1.2235662048497145,0.9755471935695575,1.8676822758296276,0.008740144364288672,0.001,0.0010123909796193034,0.000999983867756126,0.008619953880768484,0.42
78,2070,-0.16263082190685574,-0.05226891232963506,0.6545030889250906,-0.5142897113917877,-0.06786689378766436,-3.1428457965932326,0.9366753856628668,1.4153539772331625,1.8450628453794045,3.1251515526745974,0.0074716883617966,0.0009999460898597592,0.003853304083098452,0.00363993946414544,0.012984735562652462,1.1
78,2071,0.028251621274189453,0.13044481744257588,0.30546995536635846,0.012292363547163579,-0.015725326371366567,-3.142217101221367,-3.1415926535897887,-0.9659744660825991,0.37420632715889823,0.37416539988037945,0.00888592203874698,0.001,0.0010001181782828541,0.0009999999995788092,0.0099902366042678,0.416
78,2072,-0.15989859179196292,-0.06595298501641318,0.536192912919552,-0.3887119595300841,-0.16501937409298345,-2.867407525605769,0.7447372229969074,1.224107323186523,1.6880589248757583,-3.142797105566701,0.007752307623878869,0.001000001807306943,0.0010095092665329533,0.0037761353226881886,0.007503501359895221,1.028
78,2073,-0.014215538851782943,0.1610914107080499,0.31488886921222914,0.007991406863982522,-0.1351544309748536,-3.1421659192093543,-3.1415926535897927,-1.2149802528030635,0.15621178940501446,1.3001928291980798,0.008980252605570822,0.001,0.0010034818931952951,0.0009999999999947265,0.00833495544455702,0.44
78,2074,0.12730883449279567,-0.05568310489524092,0.5522039789750158,-0.44622081777629635,0.08591166591344265,-0.5846506864224961,0.6904599238519777,1.1910428778169346,1.6410723592169563,-1.1729464173992772,0.008657794344190074,0.0010000005023342853,0.0010052688868126816,0.004669870156293279,0.009237697746863295,1.004
78,2075,0.16083077600656306,0.13102365879941344,0.29329441166417525,-0.01826600707750943,0.15096005809539986,-3.142757113553748,-2.8669195275339794,-1.1556265368786274,0.38520890847829437,2.3189937811343624,0.007571247113012373,0.0012854417291969802,0.0010021226776084071,0.001000000001651318,0.0074986058341597085,0.452
78,2076,0.10447920984920936,-0.04159172395341767,0.570940316680521,-0.5324258689534563,0.10249380188983004,-2.880314181909438,0.8441398541765941,1.3314745998471091,1.7802489731060573,2.4623807507457003,0.007639472862870341,0.0010000028274523,0.001029769336177543,0.004010505048483265,0.008291751652623842,1.02
78,2077,-0.0034599901901897798,0.12077172307084613,0.3028933806200507,-0.023642911097392,-0.12649717832066115,-3.1419588504589515,-3.141592653589792,-1.1408937628350357,0.9920818867701009,1.784762534232525,0.009394987999157929,0.001,0.0010041378990627006,0.0010000524774522448,0.008294490860631483,0.424
78,2078,-0.14823536148544553,-0.07782435657744054,0.5664788621359659,-0.4321134368198735,-0.006407705883599006,-2.833582842441339,0.874463930131862,1.3260154663930563,1.769656005453696,0.08114481153099343,0.006775008010590934,0.00100006956682716,0.003892723646013837,0.006346305618000714,0.010005901469610457,1.096
78,2079,0.022853751830088954,0.1022088389534559,0.3211267022924879,-0.011042468506507183,0.04861861625184878,-3.1420734358351834,-3.14159265358979,-1.2515278141971722,0.7917835143478539,0.7913486592764248,0.009158401735826728,0.001,0.001008701570795855,0.000999999279212265,0.009744224556049409,0.456
78,2080,0.1245344116543374,-0.06458076567080473,0.5267191285870167,-0.48977965329831546,-0.11458864164919022,-0.6227628775375191,0.727616827170099,1.1727466736134828,1.6309625101581036,-1.2570757993435702,0.008667127921531776,0.0009999986273964414,0.0010048329751498044,0.004525414209067425,0.008683472344707495,1.02
78,2081,-0.0051731714788237826,0.11855098189920024,0.2990094997523066,-0.021281313205388452,-0.0973713365682327,-3.1419469394396584,-3.1415926535897913,-1.3253511325573948,0.5563236990680723,0.9477648188280385,0.009423121150681042,0.001,0.0010531537456513465,0.0010000001844216446,0.008929140081512755,0.448
78,2082,-0.12480860628511725,-0.06716287086241388,0.552329962316302,-0.40837586598696124,0.10452949931268672,-2.865344172277438,0.8198988563762871,1.290712071974782,1.712372282848579,-3.1425478623909813,0.007256045947972156,0.0010000279189059371,0.0011172269184863961,0.0033018334420047866,0.008229920536160047,1.088
78,2083,-0.008268730918810887,-0.09951985055373855,0.29425021374733884,-0.0013896964136150402,0.07034684117247447,-3.1420527047756845,-3.141592653589789,-1.2469177258563136,0.29148797816812855,0.9384632487769349,0.0092429252272148,0.001,0.0010229043950844554,0.0009999999996698474,0.009371464589043683,0.46
78,2084,0.05537044285566741,-0.07148404088521973,0.7911817879413138,-0.3819405070964491,0.4446116006366093,-1.5378169882880632,-0.8198243815655769,-0.5447906299356344,-0.3036283264583096,1.5847671153912724,0.0101177674745095,0.002461717271412358,0.02242666613881512,0.005813798103625876,0.02060851681176775,1.092
78,2085,0.05076050177013092,-0.07481315290869238,0.5799849030052682,-0.4604500291132742,-0.11074855215522975,-2.954193940185093,1.4053219958591918,1.7406669179267422,2.0852992772283043,-3.1426271653495506,0.009390247076550241,0.0008329706910014989,0.004383410388893805,0.0066116130298611185,0.008713566433470972,1.572
78,2086,0.030963743004862723,0.06932948751799287,0.33454156644623134,0.010589677639981915,-0.021903972103688035,-3.1420248562602895,-3.1415926535897762,-1.1683607130081335,0.42407173560855216,0.42393074831374544,0.009222742558997283,0.001,0.0010021923085190279,0.0009999999988761768,0.009959727037823036,0.44
78,2087,0.05521373006743204,-0.0785405621152768,0.7044852056556721,-0.33670659378421297,0.4131490413703039,-1.6561783579785743,-0.8722966506761399,-0.6129071189687756,-0.34122345184805103,1.6755869909708667,0.010204172415489805,0.0025218418236577418,0.019754862399117203,0.001174493520008201,0.018959123889336356,1.012
78,2088,0.05887702324563928,-0.06763804269773789,0.7615287744790433,-0.4954850421415835,-0.019375110049267816,0.3729085684489185,1.3781455136150922,1.7409659449359252,2.0915729318709797,0.8036137039962039,0.010140672860573683,0.0008834118345687057,0.004167179580226171,0.008698203652764299,0.010199485249874378,1.492
78,2089,0.07924597366879536,0.13709081045946064,0.31069319042508164,-0.027273884564449343,0.12825800628815331,-3.1423571893487483,-2.879109956843105,-1.2271827576134624,0.507236313863648,2.3718790670335226,0.008621574246808579,0.0012247621448475679,0.0010151613530958994,0.0009999998851547834,0.007396027362157456,0.432
78,2090,0.17097536791101794,0.8355127026815958,-0.2715913486586946,0.46612997238340304,0.10615026117665058,-1.458258656241053,-0.4673678827052636,-0.2139669682884504,1.729094884855295,-1.7798031786404014,0.01210128603830708,0.022473548924764816,0.001073219381388212,0.009006153945993974,0.009606239508441429,1.104
78,2091,-0.03629377852268666,0.7327550781586966,-0.37142928644684575,0.4255613662397948,0.012819267352150871,-0.1786640089859662,0.06675040508737473,0.28861755500006403,2.024582085753181,-0.35293346678214416,0.01000458560911295,0.018540697654311558,0.008421596320480883,0.002109841206858686,0.009996709431302582,1.48
