Numéro enregistrement,Numéro battement,Amplitude 1,Amplitude 2,Amplitude 3,Amplitude 4,Amplitude 5,Centre 1,Centre 2,Centre 3,Centre 4,Centre 5,Ecart-type 1,Ecart-type 2,Ecart-type 3,Ecart-type 4,Ecart-type 5,Période interpics
84,2219,0.02122858515737902,0.034285714285292916,0.022857142858850876,0.022857142854271206,0.021228585157934132,5.551115123125783e-16,0.0,0.0,0.0,-1.3877787807814457e-16,0.009948123119356512,0.001,0.001,0.001,0.009948123119356096,0.308
84,2220,0.1956998499751093,-0.06625044059789503,0.37236871672368066,-0.11801365689284651,-0.2366457166919938,-3.1416378403091154,-2.0091580923302788,-0.9132536783691259,0.0,-0.006375993144848424,0.009833839412150365,0.0010000025946642057,0.001,0.001,0.011422616389876556,0.24
84,2221,0.1075782911945785,0.12002048824806266,0.19903668963643506,0.014088109643210498,-0.168995872494551,-3.142223777886236,-3.141592653589733,-2.7633406961538487,-2.408652889592304,-2.4076807955754598,0.00866256724077692,0.0010000000000997813,0.0016469521821710067,0.0006845699076786316,0.00765069970342519,0.448
84,2222,-0.16862643084274065,0.31527894135642576,-0.018164869834734594,0.0019110879072756182,0.0964927659357665,-3.1416371333126936,-3.141592653589793,-2.7444555309609755,-2.322060063554173,0.5573438535569287,0.009867046903159994,0.001,0.00039456669709264815,0.0009532840993039796,0.00978110731795277,0.752
84,2223,-0.22358208842237953,-0.024395308924132362,0.39868785317607325,-0.06189863761670585,-0.22566028440559482,-2.3025510511730674,-1.3613568165555772,0.26179938779914913,1.675516081914557,-3.141592744584174,0.010818819091333682,0.001,0.001,0.001,0.009999523862978905,0.26
84,2224,-0.735541913977515,0.5276069993384274,0.0192579806213159,-0.027339530870790527,0.29212446619429794,-3.1415931886503334,-3.141592632526215,-2.3857207435272136,-1.204670867166011,-1.2005677689431566,0.009992310737976197,0.0010000000002947642,0.000999905794260402,0.001,0.013151840480753142,0.22
84,2225,1.3877787807814457e-13,0.0,0.0,0.0,0.0,-1.3739009929736312e-14,0.0,0.0,0.0,0.0,0.009999999999999827,0.001,0.001,0.001,0.009999999999999827,0.312
84,2226,0.5879799007679223,-0.4116313299675475,-0.043517554625631345,0.027257033835875886,0.23639962857512825,-3.141612022585681,-3.14159265358979,-2.422416341804251,-0.5677577084800833,-0.5631615307628598,0.009830808644816181,0.0009999999999998612,0.0010832321799250358,0.001,0.011768292606248272,0.352
84,2227,2.7755575615628914e-11,0.0,0.0,0.0,2.7755575615628914e-11,-3.889943922530392e-13,0.0,0.0,0.0,-3.895495037653518e-13,0.009999999999999827,0.001,0.001,0.001,0.009999999999999827,0.312
84,2228,0.17743449202579556,-0.08579410087237328,0.37739994333913096,-0.1277967993931339,0.22350872729014792,-3.1415927635012606,-2.008559237540971,0.2575075945565408,1.5450455673392431,3.0900687732926437,0.009999435274812103,0.001,0.001,0.001,0.010000365423705011,0.272
84,2229,-0.1561974097186448,0.5397134391120229,-0.01615297920487836,0.02522922164133105,0.1848139525096559,-3.141592652206057,-3.145755068180239,-2.268928027592584,0.0,3.0834146759837036,0.010000007954645103,0.0050067938438651234,0.0010000000000896505,0.001,0.010000323013225993,0.268
84,2230,-0.2052215706549765,0.4019380660137368,-0.23439033565055356,0.07672417719173247,0.09981965378520571,-3.1415975397559137,-3.141592653589793,-2.7038304810737324,-1.628499049922064,0.11289752054878391,0.009980495463836987,0.0010000000000001388,0.0021047366369112606,0.0009999803527130082,0.009835717398412698,0.164
84,2231,0.16183699198017612,-0.39030693892096346,0.05258524513417485,0.03557138920801746,-0.14888124956038543,-3.1417594315517556,-3.141592653589793,-2.6929518585077954,-1.6954627072240243,1.0704699379676486,0.009599121774365406,0.001000000000047462,0.0003893556412651053,0.000999922261802593,0.0095424077916829,0.764
84,2232,-0.20167299976688446,-0.046736131653505444,0.3771911339330158,-0.098608169454582,-0.29321713091879076,-2.6090576946570474,-2.011284183408785,-1.1469306513105595,-0.21608838358025306,1.2087848202149416,0.009487268106910763,0.0010000402788370713,0.001,0.001,0.010048440356197575,0.244
84,2233,0.0,0.0,0.0,0.0,0.0,0.0,0.0,0.0,0.0,0.0,0.009999999999999827,0.001,0.001,0.001,0.009999999999999827,0.512
84,2234,0.773133818203173,-0.6295571601740515,-0.021818098329462562,0.007422672986208551,-0.07420585933115331,-3.141592766314918,-3.1416408907576288,-2.3308590656121844,-1.2667712312862067,-0.3538266458603465,0.009998214513241106,0.0016539973866569182,0.0009999985955136117,0.001,0.010921965540110585,0.36
84,2235,0.7815404686141719,-0.5716660500520725,-0.023730901059039963,0.017976254714159444,-0.23688992203284623,-3.1415926738764073,-3.140446362598593,-2.3220467439566512,-0.4644093487915346,3.086944111039805,0.009999707537106479,0.003337884733788485,0.0010000000547957513,0.001,0.010000725784349391,0.136
84,2236,0.20030924772388506,-0.5727299392631271,0.09094341336908372,0.032307945283621575,0.2320293352221898,-3.1415926442081057,-3.137554221180217,-0.13900852449512613,1.6959039988405076,3.085977760787871,0.01000004655106755,0.004972480014306212,0.001,0.001,0.01000080116560882,0.236
84,2237,0.6898275307884074,-0.4932373210206717,0.4242265020182275,-0.07096299231529196,-0.27835702986217525,-3.1415945941081445,-3.141592653660622,-0.7079645416540381,0.486725622387151,0.4810335514009658,0.009976303760937484,0.001000000000001943,0.001,0.001,0.013319149289493888,0.216
84,2238,0.0,0.0,0.0,0.0,0.0,0.0,0.0,0.0,0.0,0.0,0.009999999999999827,0.001,0.001,0.001,0.009999999999999827,0.412
84,2239,-1.3877787807814457e-13,0.0,0.0,0.0,0.0,0.0,0.0,0.0,0.0,0.0,0.009999999999999827,0.001,0.001,0.001,0.009999999999999827,0.116
84,2240,-0.387603421759437,0.6065873123399057,-0.04412738406671287,-0.03577398584401345,0.22182362592816532,-3.141584344030585,-3.1416231332744418,-2.3321019613729823,-1.5611595395139464,0.593360596020985,0.010039777002973883,0.0010005759907634184,0.0010046434785296035,0.001,0.011787112117875543,0.288
84,2241,0.04785351660846547,0.048726897557000534,0.04796172561216737,0.03592814370928575,0.04701171226459476,-5.551115123125783e-16,0.0,0.0,0.0,8.326672684688674e-16,0.009944333762272562,0.001,0.001,0.001,0.00994511316527706,0.396
84,2242,0.19649953482464175,-0.024419012632220766,0.4254451465534423,-0.07623658007803111,0.2574737527989855,-2.384960243786787,-1.3463968515384828,0.07086299218623582,1.2519128619568347,-3.141593788072399,0.010392355636788626,0.001,0.001,0.001,0.009994647095325588,0.268
84,2243,0.18609331765559342,-0.619723772299242,0.0017102171446889418,-0.006960328540877106,-0.29699875729634573,-3.1415925625928054,-3.1353888950451707,-2.3690698699067148,-1.9055561997183992,-1.9024935189154093,0.010000379602255567,0.006746663139535174,0.0010000003391936732,0.001,0.012323907466090618,0.356
84,2244,-0.040106238216457875,-0.026845637583899573,-0.040268456373559365,-0.02684563758209546,-0.026682894113672084,4.163336342344337e-16,0.0,0.0,0.0,1.3877787807814457e-16,0.009989538889251344,0.001,0.001,0.001,0.009993264816496135,0.136
84,2245,0.5772390758923391,-0.36902289598699156,-0.022229056300373563,-0.012218881648721782,0.27072767004738924,-3.1416165591617613,-3.141592653589794,-2.5467659388597346,-1.431376534475823,-1.42759717105098,0.009795634517467356,0.0010000000002715883,0.0008592474548971015,0.001,0.010689658035646461,0.368
84,2246,-0.028309034902362584,-0.0425531914904902,-0.02836879432602213,-0.04255319148979631,-0.028309034902362584,8.326672684688674e-16,0.0,0.0,0.0,6.938893903907228e-16,0.009996247750516203,0.001,0.001,0.001,0.009996247750517313,0.176
84,2247,0.27157314551008427,-0.006371983637050218,0.37696165059644665,-0.12249943313319782,-0.26990015243100784,-2.594193451165543,-1.9122737891455701,-0.9561368945708066,-0.03414774623467107,-0.02696651793443036,0.009533233717601381,0.0009999998619479302,0.001,0.001,0.011140275733487704,0.388
84,2248,-0.22003671249926898,0.46015149733968075,0.05836007808835062,0.0633626678404882,-0.22983704625666526,-3.1416243888382187,-3.1415926535897927,-2.138640739113723,-1.4306783445925326,3.1120854595383705,0.009904979747359056,0.0010000000003264056,0.0010147322132516836,0.0010000000003057277,0.009812531789890845,0.48
84,2249,-0.5226285174526589,0.28638055987631716,0.1813670838887333,-0.010358406257998545,0.30860894872985606,-3.1416505019792362,-3.141592653589793,-2.629616574004875,-2.1566609214366403,-0.9968872541578278,0.009572867636704853,0.0010000035564580447,0.0029908804498505444,0.000999799212516971,0.01099142297221088,0.372
84,2250,-0.049862795156312874,-0.037735849055253075,-0.05031446540806828,-0.03773584905553063,-0.0372813660147461,-4.163336342344337e-16,5.551115123125783e-16,4.163336342344337e-16,1.3877787807814457e-15,-8.326672684688674e-16,0.009967703678247742,0.001,0.001,0.001,0.009975985570767855,0.368
84,2251,-0.23688361341604425,-0.0061820310498875595,0.4126247876757087,-0.10148400488533152,-0.19671415610535808,-2.332385344011535,-1.481036536692331,-0.13463968515385105,0.9873576911282207,-3.1415950306824687,0.01054288791855827,0.001,0.001,0.001,0.009989363037578676,0.268
84,2252,0.253055058760292,-0.6146946695324405,-0.01727699251724417,-0.05634874875319433,-0.12242141276032233,-3.1415925740072463,-3.138689406702523,-1.711274047077367,-0.28095544056494104,-0.2790363282243046,0.010000382083846888,0.004874187074002931,0.001,0.001,0.011764252424207129,0.376
84,2253,-0.27047816564831817,0.5067203731155832,-0.008632843899619685,0.03540892456672326,-0.25152195009278444,-3.1415926516266413,-3.139880546914272,-2.2607722834243864,-0.9101810491708746,3.0828198520353722,0.010000011467201598,0.00498455864496872,0.0010000000000158207,0.001,0.010003175926735176,0.116
84,2254,0.10368476592664763,-0.5730902160164253,0.011284611607078535,-0.001350444530282516,0.24989158177596213,-3.1415926504929996,-3.1485122283926166,-2.2276747907272636,-1.4851165271515387,-1.0245983964900938,0.010000015118344181,0.0067089140676286525,0.0009999999999883427,0.001,0.014483913542615396,0.188
84,2255,-0.7002743370391644,0.4854142102498178,0.03199542572661795,-0.003964906003174167,0.280380781496679,-3.141594151071191,-3.141592653553632,-1.8849555921538759,-1.0322375861795035,-1.0277909252212356,0.009980957986234868,0.0010000000003166911,0.001,0.001,0.01280928569092686,0.252
84,2256,0.06985245420518263,0.06993006992986331,0.05594405594458454,0.06993006992986331,0.05586630774295778,0.0,0.0,0.0,0.0,-6.938893903907228e-16,0.00998943433251266,0.001,0.001,0.001,0.009991342857411612,0.348
84,2257,0.2453277860470321,-0.016559120403015045,0.4191666875451473,-0.09233724046640392,-0.25597754916952464,-3.1415927758555204,-2.2588310815064823,-0.23367218084552432,1.1164337529286037,3.089640984748434,0.00999936515033449,0.0010000000132913125,0.001,0.001,0.010000683678460338,0.224
84,2258,0.0,0.0,0.0,0.0,0.0,0.0,0.0,0.0,0.0,0.0,0.009999999999999827,0.001,0.001,0.001,0.009999999999999827,0.36
84,2259,-0.047727537716562476,-0.06060606060787001,-0.04848484848496361,-0.04848484848621261,-0.047727537714619586,1.3877787807814457e-15,4.163336342344337e-16,4.163336342344337e-16,4.163336342344337e-16,1.2490009027033011e-15,0.009945379865891986,0.001,0.001,0.001,0.009945379865888377,0.184
84,2260,0.29461490090940556,0.018743591585967175,-0.28317398379331615,0.033869188153068525,0.3431242732172531,-3.141633734189271,-3.1410970809648973,-2.5773015377998796,-0.8975979010256552,-0.8913780063072292,0.009833387473104456,4.9344913486376745e-05,0.003553298434437127,0.001,0.01194918596026921,0.376
84,2261,-0.04188015474040841,-0.05594405594250219,-0.041958041957639754,-0.05594405594611041,-0.041880154736800186,-6.938893903907228e-16,0.0,0.0,0.0,8.326672684688674e-16,0.00999329999518443,0.001,0.001,0.001,0.009993299995184569,0.404
84,2262,0.2757138257895919,-0.06461398631492918,0.41497503346023135,-0.07965750268188443,-0.27679331206144897,-2.4314360419769105,-1.3936388463293068,0.11810498697705984,1.2991548567476583,-3.1415938705034914,0.010642364135352396,0.001,0.001,0.001,0.009994253757686184,0.168
84,2263,0.7961057924468402,-0.5701842091651959,-0.007448880871960025,0.018511061776215913,-0.22756856124737207,-3.1415926825686356,-3.1407866095678445,-2.013841444608797,-1.0471975511965979,-1.0441700278283477,0.009999542321428119,0.002686335857244148,0.001,0.001,0.013636487399392811,0.152
84,2264,-0.03199574815232409,-0.04800000000110205,-0.03200000000119707,-0.04800000000026938,-0.031995748152601644,5.551115123125783e-16,0.0,0.0,0.0,0.0,0.009999614670098507,0.001,0.001,0.001,0.009999614670099062,0.316
84,2265,-0.28951615228006167,0.574483856467528,-0.01847483710774337,0.013576173431029428,0.02546375839742642,-3.141592576335879,-3.14037442847466,-1.7623568544528108,0.07662421106316586,0.07632514788447012,0.010000386534567097,0.002833981497495048,0.001,0.001,0.010104037361099256,0.34
84,2266,-0.8374198066896364,0.5639623097369607,0.05328522649802274,0.04085801256898859,0.2983604044308838,-3.141592676200868,-3.1417847759324973,-2.282353637223753,-0.8323877971049876,-0.8274083012388048,0.009999531147735453,0.0010157494958029359,0.0009999999675716345,0.001,0.01501922483883626,0.152
84,2267,0.7465186107063823,-0.4901089175436904,-0.03629478596553712,0.09309366178256055,-0.23335088982546578,-3.141593041293389,-3.1415926538451684,-2.278254214487437,0.07194486992953708,3.0936169771257127,0.009994116646208457,0.0010000285219121932,0.0009999983150153482,0.001,0.00999747204256103,0.264
84,2268,0.2940747886043157,-0.03628861364551276,0.3996227971133564,-0.09478270231047682,-0.25304117816183347,-2.2566315365531633,-1.220288055526614,0.23367218084551877,1.5318509633206423,-3.141592779587341,0.011298655251788343,0.001,0.001,0.001,0.009999345549640366,0.26
84,2269,0.7997119375355457,-0.5336020725836397,-0.03103100886585,-0.023453081963441612,0.2114991980212149,-3.141592740465678,-3.1415898750902675,-2.375350542500771,-0.996114743821154,-0.9933624219379296,0.009998426653133842,0.00100007835408114,0.0010000105108108328,0.001,0.013135978820062134,0.34
84,2270,-0.5998941739407428,0.375134320114293,0.09293967031429066,0.05420257195120236,-0.22589283240173236,-3.141607234061162,-3.1415926535897944,-0.6205615118202061,0.5042062283539175,3.1028051780503025,0.009865247290320135,0.0010000000417763047,0.001,0.001,0.009941618411293913,0.152
84,2271,0.31942588778285586,-0.5436390647077273,0.028839538116619226,-0.007425602379971323,-0.12467284166383212,-3.141576173635447,-3.1415926534930043,-2.5167825274129196,-1.8224708763917976,0.5013846050420876,0.010062193334858067,0.0010000000000009715,0.00083112875686323,0.0010000000047199744,0.010548699080536418,0.38
84,2272,-0.3432769581982854,0.5821395910301117,-0.049219392342984766,0.0143386100017367,0.27437520378236324,-3.1415889381361164,-3.141321169001855,-2.4668918853145314,-1.5391695551144622,-1.5356690970918296,0.010016045115476642,0.001683157892752693,0.0009753337233764085,0.001,0.011297812449809026,0.344
84,2273,-0.23514330880837261,-0.04242816972804329,0.3721672060760131,-0.11261953493679736,-0.23528749143306318,-2.6031806621239144,-1.8311957178707206,-0.9575977607198833,-0.016799960714383833,-0.023259076069548884,0.009495738710146402,0.0009999998595837103,0.001,0.001,0.010905653210289091,0.252
84,2274,-0.21278748820601798,0.4657814764740026,-0.216222913612262,0.03450995101034423,-0.20979425654735206,-3.141636872790646,-3.1415926535897936,-2.6906600532238985,-2.154235614233027,-2.1526856916582062,0.009870817710360648,0.0010000000028665959,0.0024200527509407,0.000995364801240183,0.009063811159148961,0.496
84,2275,-0.0410890367803778,-0.034927686901053315,-0.04481050408580646,-0.03278688524760366,-0.041089036778018576,1.2490009027033011e-15,0.0,0.0,0.0,1.3877787807814457e-16,0.009879204312074298,0.001,0.001,0.001,0.00987920431208082,0.344
84,2276,-0.037840413769223875,-0.03821656050950684,-0.038216560510755844,-0.025477707005921668,-0.03784041377005654,-4.163336342344337e-16,0.0,0.0,0.0,-1.3877787807814457e-16,0.009979333121787849,0.001,0.001,0.001,0.00997933312178535,0.388
84,2277,0.19960308073362942,-0.026141427641325665,0.3964828910969063,-0.07822851118118371,0.18931272309442415,-2.505430843355864,-1.9061348684673056,-0.9177686403745464,0.03529879386056026,1.9044322840911465,0.009716602312235352,0.0010000001325868582,0.001,0.001,0.009815086184096307,0.24
84,2278,0.4094722235964513,-0.2312340035584454,-0.21432719485296242,0.009341148849269447,0.263495782895896,-3.141830532906861,-3.141592653589793,-2.6831692364065796,-2.2286452369286254,-2.2265618449147424,0.008761348403084025,0.0010000000000004164,0.002248120736789226,0.0010260602124921294,0.00831244586616829,0.472
84,2279,0.05118737432599561,0.05673672251752036,0.046129694069308544,0.05405405405459261,0.04032674362192189,-6.938893903907228e-16,0.0,0.0,0.0,8.326672684688674e-16,0.00982183330424445,0.001,0.001,0.001,0.00985311372102139,0.464
84,2280,0.0,0.0,0.0,0.0,0.0,0.0,0.0,0.0,0.0,0.0,0.009999999999999827,0.001,0.001,0.001,0.009999999999999827,0.276
84,2281,-0.2394239633215536,-0.05085128435630889,0.40694524616478056,-0.13058234953390954,-0.2885750095569202,-2.60025601448966,-1.756589440717027,-0.8782947203584368,-0.03378056616763134,1.2792628188632231,0.009498676381038086,0.0009999999880499757,0.001,0.001,0.010017737273635653,0.268
84,2282,-0.03075586996817429,-0.14402293759180348,-0.024810757223575168,-0.05018258964484262,0.08380891264730977,5.551115123125783e-16,0.0,0.0,0.0,-5.551115123125783e-16,0.00947217998966683,0.001,0.001,0.001,0.010099557100480784,0.376
84,2283,-0.01625775934852099,-0.12736650703676075,0.44195872914414724,-0.12484946379474723,-0.12377753012097867,-2.9659088485835445,-0.9797525130637446,-0.6351077868606476,-0.3720331845256762,-0.3723129195026452,0.009919024770065578,0.003048861631954844,0.008232919593564862,0.000983817449057677,0.01011143376935096,1.068
84,2284,-0.07794613146486518,0.024396381312027485,0.5926277549812338,-0.20598976379038578,-0.024594697486274204,-2.8571345025830603,1.164558164833692,1.7709626969302001,2.1374067145415863,2.4645266111102706,0.008840501080903769,0.0009874626886187112,0.0033647586213429027,0.0024101901962183493,0.010007587028213012,1.464
84,2285,-0.23014631227680923,0.44661114178767103,-0.25584937077677994,-0.039646888944406634,0.19297802017644014,-3.141593629400696,-3.141592653589793,-2.5391281096459735,-1.7135959929185438,-1.7113626214536675,0.00999185368922721,0.001000000000001249,0.0029612866329920707,0.0009999985223037014,0.009066770250679796,0.392
84,2286,-0.055811289814549546,-0.045376174785532374,-0.02934609725307987,-0.04830917874371001,-0.020674337429665717,5.551115123125783e-16,0.0,0.0,0.0,1.3877787807814457e-16,0.009639847535539798,0.001,0.001,0.001,0.009798769291349497,0.488
84,2287,-0.6957733305819489,0.4591225344221919,0.0073666870730837285,-0.046736118226192294,-0.3076820326400562,-3.14159460863878,-3.1415926535846883,-2.5221250807466906,-1.814159137988472,-1.8110359578601134,0.009975589662019292,0.0010000000259768596,0.0009917616556943667,0.001,0.011410331946064929,0.34
84,2288,-0.21064047460688815,0.2277102882751561,0.40954244524539146,-0.05742597523627035,0.28262126379372154,-3.14165853363986,-2.538423587345545,-1.129561403537903,-0.2117927631633597,0.6652169300646612,0.009762003328149345,0.0035757222041420938,0.001,0.001,0.011403482898722601,0.228
84,2289,0.06658254945002277,0.07388026150259579,0.062169502337144966,0.07035175879452353,0.05474553398651703,-2.7755575615628914e-16,0.0,0.0,0.0,-5.551115123125783e-16,0.00962869897095357,0.001,0.001,0.001,0.009675048157665829,0.448
84,2290,0.557876551469237,-0.32855300990328895,-0.003553694518742723,0.014993417726828941,0.2813188256195597,-3.1416217214984425,-3.141592653589793,-2.4109906595318007,-1.7534470624687206,-1.7503180560261666,0.009761642715888736,0.0010000000435618208,0.0009948084341995502,0.0010000000000378864,0.01022176788485661,0.348
84,2291,0.6050370112267841,-0.34516498182436883,-0.08790808885847136,0.004321771373289639,-0.28792084966104003,-3.1416073907198903,-3.141592653589793,-2.480831834009847,-1.7065441575055667,-1.3145460509263778,0.009861091426728542,0.0010004343602008628,0.003261625177912002,0.001,0.011156145179780459,0.376
84,2292,0.2449453163031846,-0.03277348455184411,0.42298111488924595,-0.12394648221375837,-0.21246029863678825,-3.1415959985086457,-2.47316725304812,-0.0222807989616296,1.1363207470431167,3.0970044315423393,0.009985119988047643,0.0010101767230412109,0.001,0.001,0.00998678734111409,0.272
84,2293,-0.062006436070543465,-0.04651162790775199,-0.06201550387524502,-0.04651162790650299,-0.04650255684884797,2.7755575615628914e-16,0.0,0.0,0.0,8.326672684688674e-16,0.009998776169828595,0.001,0.001,0.001,0.009999092932804722,0.396
84,2294,0.40965625933084826,-0.2193948476787942,-0.0250149156475155,0.06094316054825353,0.287911958230999,-3.1418357273487487,-3.141592653589793,-2.713974792309686,-1.5908490458229825,-1.58730614193634,0.008730496945925188,0.0010000000000192901,0.0004352003069013378,0.0010000011918632748,0.008182639200549858,0.12
84,2295,1.942890293094024e-12,0.0,0.0,0.0,1.942890293094024e-12,8.965050923848139e-14,0.0,0.0,0.0,8.965050923848139e-14,0.009999999999999827,0.001,0.001,0.001,0.009999999999999827,0.716
84,2296,-0.21875942769311307,-0.013773076741061574,0.3724108651581881,-0.08652131458583112,0.2677793298300805,-2.604506025364108,-2.260414247660119,-1.2642994825422338,-0.2681847387210796,1.2990645745081435,0.009927024066415059,0.0009997622104197515,0.001,0.001,0.011174255314872995,0.204
84,2297,-0.04883845989611513,-0.153887639421534,0.019025100056428185,-0.20030030856109704,0.08673651237075379,-3.1425722577552526,-3.141592653589792,-2.85964537805247,-2.5044341651140756,0.06867418476292975,0.008207340256130109,0.0009999999999980571,0.00024118675678791462,0.002082127830996069,0.009535187612847674,0.452
84,2298,-0.1458032622220295,-0.05176249292964142,0.35667275841844825,-0.08134476915550903,-0.1614210099591358,-2.874002744584317,0.4177649805301765,0.9357935382693856,1.3535571725750914,2.522687561797203,0.007927559041643285,0.0010000000234226527,0.0010002938320749213,0.0010096702014801276,0.007574131709134733,0.972
84,2299,0.0,0.0,0.0,0.0,0.0,0.0,0.0,0.0,0.0,0.0,0.009999999999999827,0.001,0.001,0.001,0.009999999999999827,0.532
84,2300,-0.12389932201190387,-0.014342135276139817,0.3904052938581532,-0.07401202941647726,-0.192662128396316,-2.7844098416463448,0.4105490399577539,0.8924979120326255,1.3922971653363372,2.6590273630935726,0.008835847576301554,0.0010000000002776946,0.0010000237493825994,0.0009964760551836307,0.007254153629221983,0.908
84,2301,0.0826043070285836,0.11478517891322385,0.003735434057905883,0.09364548494858502,-0.06681010341041946,0.0,0.0,0.0,0.0,6.938893903907228e-16,0.008616728289558518,0.001,0.001,0.001,0.010098910534655737,0.5
84,2302,-0.050351196798220005,-0.06303399008394878,-0.00984264209386019,-0.059574468086186966,0.01250974570696227,0.0,0.0,0.0,0.0,5.551115123125783e-16,0.009409979507638512,0.001,0.001,0.001,0.009832919392645757,0.696
84,2303,-0.046300309313521484,-0.2032162667194218,0.6756492970703678,-0.0640009877753564,0.030820201518944827,-2.9321458713284962,-2.6317400789993783,-2.2268568451465365,-1.840135336416993,1.4517605982383377,0.00988988280287993,0.0016108516025617184,0.0025888215889684884,0.0007450517615817192,0.010864866454355039,0.244
84,2304,-0.14619300908627084,0.05059838554768696,0.5018682392620392,-0.0965068479765411,-0.0965965795909022,-3.1422021698520215,-0.8011401821161086,0.0071440165431463955,0.21467002635196594,0.21465188798164328,0.00982693375457584,0.002149920672136175,0.010581086300023813,0.0010951822047727535,0.0099825714125384,1.436
84,2305,0.09790956553947777,-0.05583977921823295,0.46093513322265384,-0.14207364934639022,0.019091703097936605,-1.0705378846456406,-0.28399108602798195,-0.010144114129645977,0.21389036044421636,2.7745621941713705,0.010071896309954793,0.0010738737226128883,0.009302084833344547,0.0019406651921520235,0.009972231101349439,1.432
84,2306,0.07970643557326318,-0.042021191000550365,0.4373316082568183,-0.09997907538371868,0.10945070573254964,-1.1000299524892239,-0.22880465758174007,0.007346590140562015,0.23760977614005646,2.1120413909144053,0.010065068358847502,0.000977614563182321,0.00883920966348301,0.0009530533967814079,0.010320293155307398,1.444
84,2307,0.016454456821262835,-0.08177660533373902,0.4240071840154831,-0.15480682470162463,0.024488190824172654,-3.0260597429246,-0.2710657676070819,-0.02215963802175669,0.2087528424052958,1.6841160321138902,0.009971468410111288,0.0009575717573628565,0.00783830038373705,0.001446957650977048,0.010033049757920296,1.408
84,2308,0.03819191483031384,-0.07540678075429381,0.44426231165365937,-0.12184294159310843,-0.08576827394587201,-1.0472137157710812,-0.6009399329756371,0.013333162584222479,0.24504087939715324,0.7266107628923459,0.010044187515680742,0.002525551049143184,0.008161909935851967,0.0012265908491204394,0.011023291197771725,1.42
84,2309,0.03959713888196389,0.0,0.0,0.0,0.033561512457619395,-0.0006592985600793737,0.0,0.0,0.0,-0.0005249794724436485,0.010295451024189021,0.001,0.001,0.001,0.010235248977799828,1.404
