Numéro enregistrement,Numéro battement,Amplitude 1,Amplitude 2,Amplitude 3,Amplitude 4,Amplitude 5,Centre 1,Centre 2,Centre 3,Centre 4,Centre 5,Ecart-type 1,Ecart-type 2,Ecart-type 3,Ecart-type 4,Ecart-type 5,Période interpics
88,2394,-0.02156088798841068,-0.2995612923282938,0.7608186152759119,-0.14656583035004486,0.24234159312076997,-2.9365694281254413,-1.8497609777522248,-1.4188184883504695,-1.0764911280093097,0.926642920339998,0.010368305315940447,0.0031847106337611793,0.012784583184315657,0.000989757272206986,0.0059696103995030446,0.358
88,2395,-0.053453722227058,-0.03697060238126556,0.6767314451463282,-0.14144328092405573,0.05871479988829117,-2.987078096649452,-0.26780744734808326,0.0515004075712901,0.28841021649428733,1.009305274715695,0.009650497272631299,0.0010030286360443166,0.0010246689766358888,0.0009882809904763748,0.009807246876536542,1.24
88,2396,-0.03567216362871698,-0.025695401984687703,0.6325863642968337,-0.14347060522175473,-0.1622778913975418,-2.963263847465428,-0.29894928332347337,-0.0052446682183506475,0.2465031800812348,0.24608151340622444,0.009762357892540525,0.0010018752164059055,0.0010133943010308113,0.0009932441999876687,0.011642961779652307,1.2
88,2397,-0.23840293571673532,-0.034531803299190936,0.6035537561969705,-0.08467503357910111,-0.09932506355324033,-3.1432584398728847,-0.2941962887038639,0.0,0.24166149447843185,0.24150299651958523,0.00841875914534408,0.0009977132803449798,0.0010121753386789214,0.0009961633922858362,0.010897900100028347,1.196
88,2398,0.06850731770069382,-0.07017665342198304,0.6260898175869001,-0.12655351701582024,0.3453439351513421,-1.2339573087031854,-0.3421522998014501,-0.062208724597901555,0.17626032578632456,2.05195750369868,0.010243484355499889,0.0010087417241806387,0.0010195961567223124,0.0010057746778232837,0.017731170682045314,1.196
88,2399,0.04274226179671196,-0.050224878953275785,0.6523633671161075,-0.14420115312637835,0.299195616015548,-2.9890813409612234,-0.30500993483076233,-0.04066667236970775,0.193171012862162,1.869523731280768,0.009754385868713062,0.0009939502670603942,0.0010321779619964768,0.0010108498269649204,0.01581757412538018,1.228
88,2400,0.1009747069990197,-0.035092344904734694,0.6404174942621367,-0.14987730608103972,0.07854075375659236,-1.1254367515474695,-0.29022753523340383,0.015274759817410631,0.24949218788243543,1.044152354783309,0.010278317002967953,0.001004064942045745,0.0010289016233319395,0.0010156061845159317,0.010595855843716596,1.244
88,2401,0.09252534748590392,-0.03937606329646556,0.699294756411672,-0.14390651030238294,0.3343376509155696,-1.014328319553268,-0.13564729737431147,0.17905305995953327,0.4394948744608129,2.0007826147760452,0.009524010753917773,0.0010004183145568826,0.0010141262232779271,0.0010168409416312354,0.018963609477288708,1.226
88,2402,0.048079276101482216,-0.046876142557941085,0.602398556708536,-0.18642553857638888,-0.23816843688232583,-2.9711450719992016,-0.41471273186900154,-0.07385289311824592,0.198835079981654,0.20001231676403888,0.009509186300304283,0.0010017844016329816,0.0010020494595122378,0.0009989154557571841,0.018088349794377005,1.088
88,2403,0.1470116256287231,-0.029237380384191516,0.4674620888768321,-0.12051474924426252,0.2689849170015466,-1.19047263141236,-0.34405242379256545,0.016920586949252303,0.2763697080134523,2.1823812122356063,0.014996152844634096,0.0009992606904983261,0.0010016074708225622,0.0010019006308198816,0.018854058122842972,1.126
88,2404,0.13534854696918527,-0.04448116204163069,0.5336845559064781,-0.06663346563071504,-0.09593076250991439,-1.240424926809416,-0.3653016415336736,-0.0505801260953187,0.21918086016331512,0.21811214578471116,0.013740277686298012,0.000998594996599502,0.0010021757031146153,0.0010001948727881146,0.01266175339598402,1.102
88,2405,0.13698469888839485,-0.05502771074717938,0.6063875441143114,-0.1812215205248778,0.3409263333261725,-1.2939489880186719,-0.41350955982439314,-0.11277433332575955,0.12351536536706789,2.0881282387045506,0.014796962577264287,0.000994620837793502,0.0010100299427059636,0.0010029513438239148,0.021201271181796433,1.132
88,2406,0.1182489098542226,-0.06644703887340125,0.6674512022580602,-0.2228170924092466,-0.28981463711839633,-1.1537825179923105,-0.3467642198897794,-0.03622858472335469,0.2018498956052378,0.20223239848756014,0.01182978379091505,0.0010089025936927945,0.0010206025027650603,0.0009904022757937772,0.018654734549335028,1.208
88,2407,0.17911980865432944,-0.01806642639028812,0.7283134471537438,-0.16421738598968436,0.36014770752904257,-1.136354432807434,-0.2569915831196238,0.03671258977390367,0.28845835048678936,2.1757479642878916,0.015407318654126643,0.0010009816711779576,0.0010163792937987045,0.0010126025759206172,0.021620311848218998,1.22
88,2408,0.14322518268811898,-0.05689435397286226,0.617291435913173,-0.21234183380179703,0.3385824250899042,-1.151183734786561,-0.3622829694688263,0.02703594548074445,0.2865813415222295,2.1020674096538987,0.011584669142564686,0.0010038103873369056,0.0010062826096696583,0.001008925075775934,0.019929407746683947,1.176
88,2409,0.14228557356547963,-0.05993576560969891,0.6300320178585649,-0.15431702278970516,0.10850396295851142,-1.183103044110767,-0.3686278135750064,0.005501896126985848,0.2695933138097104,1.0510677590188087,0.013359719277030472,0.0010030358803076308,0.0010040780420672293,0.0010039304368303073,0.01199484762834875,1.148
88,2410,0.17755031714826644,-0.05196654255216626,0.6841105689121155,-0.10848253955688573,0.27689641536066534,-1.2636022961632574,-0.3405219996399329,-0.021969099076815907,0.25264528200591907,2.2069981926569624,0.01406436176718105,0.0010022190889808344,0.0010047136847624446,0.0010025063412197046,0.019466348432120965,1.136
88,2411,0.2144676797297411,-0.017602490663301985,0.6666297839050849,-0.12245217883669772,0.3127308448951272,-1.2803530957558058,-0.36580170443160365,-0.06455284803777762,0.1936595117286831,2.2642855648294624,0.015273926614585943,0.0010012845519514054,0.001008554065175359,0.0010029110619025053,0.018369195118561624,1.152
88,2412,0.16143317333178586,-0.04061123088922303,0.6391261206731652,-0.10574429718150179,0.3652255707209731,-1.3170640197511976,-0.43576696852790503,-0.1621386494556643,0.07093890786244098,1.9244733877429807,0.012201205534120739,0.0010131484724053693,0.0010652048681454992,0.001004694773260705,0.021532987077932636,1.184
88,2413,0.09687445154911153,-0.04750489989967823,0.9033724052830073,-0.09431233029799174,0.3335572718827726,-1.1990851347548583,-0.4605334774048427,-0.1959818893044363,0.022797498632529764,1.7372497199765544,0.01336550488434239,0.0009539679266702398,0.02202062194117505,0.0010306645325761496,0.019840813182079337,1.296
88,2414,0.10028042921429506,-0.09300192864876794,0.9134502439072002,-0.14035862067611699,0.2384609685195478,-1.0178842816027212,-0.25022066028366385,-0.007949813234231553,0.19808716399762683,1.8391673451811044,0.011399321768824867,0.0013144008051778058,0.024037024856183108,0.0023061927110148675,0.01847259832035606,1.46
88,2415,0.15542102609731587,-0.04802121462210597,0.8593597545354528,-0.11899117375714402,0.34487688867914823,-0.9492659048332887,-0.18116537106382202,0.05724429251225775,0.26943172662963377,1.8955839917998052,0.012692267842269412,0.0009815268154352427,0.022088284559046233,0.0014113187204530383,0.01953519523726898,1.452
88,2416,0.1260729609484343,-0.027452055569611333,0.815094072145971,-0.09428204752723811,0.3393998171422531,-1.0587356852367673,-0.2839559967259974,-0.02203029208713453,0.1847894761807327,1.8175968163577934,0.013522620857205582,0.0010192238288469066,0.01778431579751987,0.001064353655125221,0.021442287467938102,1.392
88,2417,0.15562958310310193,-0.04589311717462662,0.8369544746900891,-0.08224056200685678,0.3459664797313935,-1.0319643399077532,-0.24095662548007957,0.004642261974869184,0.213674168421495,1.877205955857632,0.015190178386054838,0.0010279910171659126,0.017396710897340524,0.0010517549876290213,0.021555979601807267,1.396
88,2418,0.154927178292185,-0.05958936018620843,0.6864593321920318,-0.10205095473377493,0.36620431442416895,-1.0372998857585356,-0.18087779556905492,0.09491100830648064,0.3331871156433354,2.1316243113150186,0.012895142010012585,0.001013056796174249,0.007319971687952724,0.0010619713367622926,0.020771441931794244,1.368
88,2419,0.17686479278855224,-0.030824223222595717,0.6232197017914544,-0.07929425406823455,0.3394590180570484,-1.179558820884468,-0.30370295662673175,0.004978501956262819,0.24395720941743718,2.125146625884498,0.013460693729392846,0.0010058488108971994,0.0010514373076878488,0.0010112843921622197,0.01966334007362454,1.272
88,2420,0.1678524238957591,-0.049116658075088346,0.6643792348093763,-0.12726274982406624,0.3049855651810838,-1.1957335435574667,-0.3424463032739679,-0.054589557975612935,0.1737040764171544,2.0192188940814546,0.013265797844108388,0.0010124268817616041,0.0010694521264418824,0.0010135463467355879,0.020038679219636618,1.252
88,2421,0.13745917155365758,-0.05304634028140606,0.6444422632770828,-0.14272816619945658,0.37203003787372513,-1.1325012455790027,-0.26221028616674613,0.014841181778540304,0.24241838543655292,2.0227363507499287,0.012341795309423363,0.001009078126879114,0.001066639768525681,0.0010246805046753146,0.02015143262154612,1.28
88,2422,0.1544650713289592,-0.03867638983252226,0.7075504989659901,-0.13744592387591997,0.10418014395651357,-1.09793628543034,-0.2503062174390074,0.04597320378891577,0.29116937682392235,1.1591606799512137,0.012825376318140137,0.000996923862071313,0.0010319365971840347,0.0010175165231626473,0.01141859653319306,1.26
88,2423,0.08167133328535109,-0.05240982264314066,0.6180514348009916,-0.1880495626751628,-0.20646230439204058,-1.2082551808218036,-0.3047024089803324,0.010506885442894236,0.26267337379615885,0.26303000131920473,0.010150431382944967,0.0010040279890046319,0.0010125467544020291,0.0010112640601805658,0.011903655001350181,1.2
88,2424,0.14714779536775668,-0.04146245667671864,0.5345855244616994,-0.10466719763508589,0.34452891437225197,-1.192540916605779,-0.2981847507284768,0.02129879600880523,0.255587730482716,2.21466443369912,0.012732875262449579,0.0010023090426717193,0.0010077699402162984,0.0009959237509399024,0.016241303878944652,1.192
88,2425,0.09508170205846168,-0.06109549328216243,0.6141091180634604,-0.16951792101148364,-0.2610730139124827,-1.320218915664695,-0.3833798768329261,-0.053246919422943545,0.20233923205908472,0.2019157653593432,0.011326668725640419,0.001006274598391906,0.0010096689398153965,0.0010048233433313366,0.015084846077713958,1.168
88,2426,0.17502511702062923,-0.000707017912271371,0.9728170844374471,-0.26620681335612983,0.14416314113363415,0.37362002819420254,1.8435689606853976,2.443460952792062,2.8999053335685776,-0.5804875507989211,0.012505765724541247,0.0010017057370652052,0.0027269557143301515,0.0025802629697749464,0.008623850868974712,1.192
