Numéro enregistrement,Numéro battement,Amplitude 1,Amplitude 2,Amplitude 3,Amplitude 4,Amplitude 5,Centre 1,Centre 2,Centre 3,Centre 4,Centre 5,Ecart-type 1,Ecart-type 2,Ecart-type 3,Ecart-type 4,Ecart-type 5,Période interpics
89,2427,-0.18281652948443933,-0.1932294190722397,0.8622383774288194,-0.2458913206977345,-0.2782984851974355,-2.578733185702697,-1.8666211357739546,-1.3924947434758,-1.0471981744782612,-1.049360106878553,0.00959440285043532,0.001898703039593068,0.01930137384124546,0.0009944371959968714,0.019325866167417993,0.306
89,2428,0.12871353382566073,-0.04658659169294557,0.7653178165912199,-0.12072356187376,0.02447501075197776,-1.136172357751973,-0.3040254338471954,0.01600117388298765,0.272021716994994,0.528119550699685,0.0123871141795637,0.0009974894518106616,0.001011006443219469,0.0010057944324971526,0.010051271920967384,1.188
89,2429,0.12834554175441293,-0.05616579094889071,0.7410123197473489,-0.16678590624294434,0.36965298130543595,-1.2779786409163443,-0.38414676448278934,-0.0789333831481954,0.17365527471541747,2.1617765737960926,0.012327335777636934,0.0010071111975010613,0.0010175756973615216,0.0010055992082466372,0.020888341158739443,1.168
89,2430,0.1075563581336434,-0.056167544133030226,0.735647473474661,-0.1301544634677785,0.37204920451328743,-1.209836603353422,-0.35584528073742805,-0.06099957919039756,0.17283742358398496,2.022682941296061,0.010744787000052198,0.0009909278777418531,0.001040393083967638,0.001008630624935349,0.021585961496844976,1.22
89,2431,0.15274444582773794,-0.04954778069694472,0.744517040545904,-0.13339287332072938,0.331763574352409,-1.183961968550798,-0.3816916304953237,-0.08805917615480532,0.1468015109896744,1.996397756203261,0.012630673689900769,0.0009842873990465314,0.0012346823513382085,0.001016427640871855,0.019235828819324806,1.252
89,2432,0.11361358360031934,-0.06593280470985684,0.7574576276358368,-0.1385559186818539,0.34625051049931155,-1.088475411497851,-0.29942048728703946,-0.023688862840352418,0.20436347479169953,1.9819356038867395,0.011473938516160477,0.0010285441189966374,0.008023539920709706,0.0010419470564973212,0.019051977065391246,1.316
89,2433,0.1366930479615252,-0.060795043068762836,0.7693949786643275,-0.13448269557116055,0.3444309746981919,-1.087758028311654,-0.28041746073622553,-0.014213188484032545,0.20436374149762754,2.028649208118643,0.012189893923244986,0.0009836890020862151,0.008290052753650834,0.0010402812572514871,0.01939168258972205,1.328
89,2434,0.13328907860802383,-0.07827104516615245,0.7223671303025597,-0.15853898527303,0.2866864704665186,-0.989072104852413,-0.25576378381878184,0.014468342760394513,0.2461076308786615,2.0018535518199414,0.01356497873122797,0.0010207926707062462,0.001453972928760732,0.0010480709698707366,0.017763756608751152,1.316
89,2435,0.23175180003511278,0.09340747313534711,0.8134894571081219,-0.0611940365151856,0.11492823025490351,-1.119576147330707,-0.7227988920159869,0.019818679877156603,0.2576685441835346,0.49471707400151466,0.017701007490669163,0.0024484716545419513,0.0011018621964175848,0.0010100360428779978,0.013729795117482192,1.288
89,2436,0.06645740781666892,-0.09725483192714561,0.6641519033384011,-0.17916184848469924,0.3818340504494032,-1.2065128035159818,-0.35903411640422617,-0.05983641438323356,0.17951720346464103,2.1335927257640157,0.010801763573081808,0.0010288133036339955,0.0010606658635374236,0.0010188335908365978,0.019519926995198347,1.248
89,2437,0.10929117601304551,-0.05823671545522263,0.7058958344403382,-0.1297919572359246,0.42252671574140577,-1.034284109977962,-0.22081561488189547,0.05018265742639347,0.28103371021190937,2.248414057658985,0.01075918448198136,0.0009949747274398393,0.001053342843425036,0.0010214843443155366,0.02026865902622401,1.274
89,2438,0.11419083813170026,-0.03922362394405767,0.6942335496717953,-0.16041292318096645,-0.2031568819641144,-1.1526452967688299,-0.3570001557860252,-0.02039937031205516,0.22440073094447802,0.22466840925454673,0.010543692510009512,0.0009937969619492884,0.0010309802265884007,0.0009907499663309718,0.01686599559852244,1.228
89,2439,0.13181804423701113,-0.043237312311772275,0.7189489627364675,-0.16037897459058362,-0.24133493554661425,-1.0779145630716405,-0.2969669516484616,0.06772801729130956,0.3073864077582915,0.30569875163592275,0.011745581254468907,0.000996656346733931,0.001020872125583299,0.0009992489197860046,0.01755130574597516,1.236
89,2440,0.13678472870211636,-0.020064321480869025,0.7118790673475573,-0.1528886674611086,0.03265600477218835,-1.1903996994859747,-0.30715387423335666,0.005388632254143436,0.26404396693367993,0.5443628776488557,0.01186949966875221,0.0010009450188506732,0.0010078129130830218,0.001005730220514616,0.010072850127736495,1.176
89,2441,0.10176243873499,-0.04004728460639043,0.6050438643923769,-0.15198178564044856,0.3631835574915786,-1.213014391975729,-0.3249920845973987,-0.02166605488241166,0.2274941950375914,2.2853560870463485,0.011359159924119967,0.0010019614108544286,0.0010058477328697404,0.001003964014717861,0.01823359198747824,1.156
89,2442,0.10257140448249273,-0.05166573468440039,0.6592908482254026,-0.12389695552660014,0.30987532475447066,-1.2510847520766102,-0.385439928863309,-0.08975876786166012,0.1531193076484668,2.095595211252616,0.009457615261757963,0.000994416138336395,0.001014784610628954,0.0010033904655870332,0.013273695769335054,1.164
89,2443,0.09757957262946367,-0.0347768291803843,0.7121969525121226,-0.15016345436354206,0.3202999113779633,-1.159361198963782,-0.36268882448672546,-0.056189425927062275,0.17878871080728728,2.139796790692923,0.009747460153484112,0.0009944206697168048,0.0010331874440701041,0.0010094613575593594,0.014755986234137692,1.216
89,2444,0.13195409012441708,-0.04595220495158433,0.7689868730479694,-0.14835139570324155,-0.19484407482845115,-1.070550455015798,-0.3126209102135852,0.03587359131121319,0.28187367828824306,0.28238831417723265,0.011836205412658783,0.0010055874003097173,0.0010319645304742294,0.0009889200606784795,0.01673747363553786,1.246
89,2445,0.12682298615757978,-0.04384274060920103,0.7001063273008755,-0.19438023374344196,-0.2586325389714375,-1.1383131195371878,-0.31626816179929834,0.010542136980153098,0.2740990429648882,0.2726486443936305,0.01097166831284582,0.0009968467355443425,0.0010133144062255258,0.000997042503159031,0.01836918196445215,1.204
89,2446,0.1287425585439832,-0.04724112279801886,0.7045045191179686,-0.13802289068135118,-0.18653847686828248,-1.1618097244462606,-0.3371730465129048,0.005351905950798933,0.2515414821491241,0.24995385873761594,0.01426397871126371,0.0009970053769492856,0.0010091582839380905,0.0009998907336584697,0.01590249442245433,1.18
89,2447,0.14883270668090104,-0.04540694329611739,0.691118936886166,-0.12685663217415288,-0.17191150862862015,-1.188446211286069,-0.30927619948573254,0.005425866250940065,0.26586878519286106,0.26434591894636217,0.01496551362044715,0.0009981379594943265,0.0010063728788455425,0.0010000958795325773,0.01537896256819919,1.168
89,2448,0.1265752264722736,-0.0457615302699127,0.6977864373158028,-0.12415962029402541,-0.178119888771191,-1.2203976623428483,-0.34906614503347105,-0.03272477424664762,0.2290744044149076,0.2273672363788524,0.013401835154895929,0.0009977504807922163,0.001005838159184493,0.0010004071535020245,0.015259526848114295,1.148
89,2449,0.11983883668039652,-0.03749269161521801,0.7136681090671474,-0.14916837991153664,0.04756562243730403,-1.2867419348664324,-0.37527599551275154,-0.06433245314140859,0.19299845624411333,-1.286462075475046,0.01369245231039133,0.0009970148001889048,0.0010100231035354837,0.0010038179609104794,0.011992783249982026,1.156
89,2450,0.15301133330420458,-0.04721008575946581,0.6975569300046796,-0.13399856342445554,-0.16410550565983056,-1.1980934879454277,-0.34673159809055554,-0.03152059918830136,0.22064747991859246,0.22099577545978405,0.014712638041135635,0.0009956405811273735,0.0010147833438364498,0.0009959338637552792,0.015673699095283364,1.188
89,2451,0.1920136522278913,-0.017160858185056062,0.7126351837353069,-0.09147666663017807,-0.1165273558124991,-1.1543216459647505,-0.3432863214481796,-0.0312073427118835,0.21845524893453444,0.2180118671422809,0.01397241406715678,0.0010019311196194222,0.0010194910737068288,0.0009987627076159652,0.013874733814851032,1.204
89,2452,0.15841901587478,-0.032405862739791826,0.70576213939883,-0.11163814916638455,0.3993369414414193,-1.1435984523045275,-0.3260636683169076,-0.015526520651079012,0.24325242171928,2.177402074714308,0.013571006953779106,0.0009966063684086332,0.0010214129830240773,0.0010079028444918,0.021686163474171058,1.214
89,2453,0.10195498665031726,-0.03236079627175007,0.692636231796113,-0.11244901169481447,0.390064802981158,-1.212276147134616,-0.37375736980621527,-0.08080920612779566,0.16162445079201837,2.0399041280543764,0.010334414660935027,0.0010072973715322528,0.0010481545522063726,0.001007878413769008,0.02053923576457608,1.212
89,2454,0.08025026810573431,-0.04787492550426755,0.6398811758385929,-0.07163158574131104,0.37423430072375113,-1.1894175065212593,-0.41223689085438636,-0.1275658529173966,0.09002957138738923,1.8710916257113375,0.010149123862627533,0.0010389824806446004,0.008019971920455846,0.0010121436591195984,0.019813136096307443,1.276
89,2455,0.12713151054759628,-0.06111268743440162,0.8176767187560857,-0.09718208454928438,0.33807225144670605,-1.0881988191229404,-0.3271640447113821,-0.07522490310083632,0.12995890896907009,1.8331980672319326,0.011685297609805466,0.0009606643564400295,0.018875750035096325,0.0010587147634548147,0.017645551114363396,1.376
89,2456,0.09504726373759177,-0.05252463610074229,0.8640841515773383,-0.12989494692651257,0.3861200609666936,-0.964625391780187,-0.22661256512099856,0.03154852703647552,0.23544760422422023,1.9506915853191524,0.010857150639414668,0.0010349686596760185,0.020416623518814965,0.001284693977182296,0.019245090431852283,1.428
89,2457,0.10511179927427242,-0.05569656868674535,0.8850035715251314,-0.18207980530848966,0.36637808334195654,-0.9556751472260068,-0.20209395775228078,0.07330948697079798,0.2845993699758044,2.075913646823041,0.010940133379873538,0.0009848942168151345,0.01773529957079204,0.0016166581271974808,0.021117910741303404,1.4
89,2458,0.07129781182623968,-0.09674008916554147,0.6214964960153678,-0.267873612919877,-0.08034618448004661,-0.8092287717532103,0.08519563378920428,0.3939903403150763,0.6588899274780553,1.0968178262076655,0.010795343453373308,0.0010015621973527974,0.0011990979916834113,0.004590879991423738,0.010114515845440512,1.338
