Numéro enregistrement,Numéro battement,Amplitude 1,Amplitude 2,Amplitude 3,Amplitude 4,Amplitude 5,Centre 1,Centre 2,Centre 3,Centre 4,Centre 5,Ecart-type 1,Ecart-type 2,Ecart-type 3,Ecart-type 4,Ecart-type 5,Période interpics
95,2569,0.1985761583277379,-0.10049274516861144,0.706002402238564,-0.7250318866924917,-0.1189972090946466,-1.4588643285534273,-0.13089969389957734,0.50178215994837,1.1562806293700236,2.2021309562336047,0.011169163235524538,0.001,0.001,0.001000003254736758,0.010268844141314527,6.424
95,2570,-0.05465829645530209,0.03839926592737339,0.9538509637930322,-0.04218662951655611,0.06225517416479304,-3.1412555140338236,-3.1415926535897705,-1.1337424651451158,0.7183255929540742,2.3959869484666463,0.010576819226321378,0.001,0.0010041439464908144,0.0010000005276863668,0.009929972594491061,0.468
95,2571,0.1697535366619217,-0.13659102554285454,0.6965330034363609,-0.9039791485754323,-0.01661273029194093,-0.4843940090492159,0.3607991562946069,1.1351971949642783,1.6413946813830642,-1.1348728392944845,0.014186878799866088,0.001000000002149253,0.0010019883839362522,0.0055136491031438145,0.009584823784745773,0.984
95,2572,0.05628639426660036,-0.08182367829482537,0.9116754109525144,-0.03792755945972651,-0.11281654902741343,-3.1415119074469895,-3.14159265358979,-1.0300302947199473,0.37767780534956313,2.058290230856162,0.010134822862438398,0.001,0.0010012461504751704,0.001000000002654682,0.009071291708388314,0.454
95,2573,0.19158855394060162,-0.12240221309883395,0.7595801150538602,-0.7066501835769877,-0.1292220140583584,-0.4407530647357816,0.5392924718669339,1.1556262124058168,1.6487794258805555,2.38685157583521,0.012857914095365198,0.001000000141154033,0.0010057166627742689,0.005197734481699088,0.007829633024581787,1.0
95,2574,-0.024065904555961005,0.0907570141388912,0.89934071245136,-0.032563612035898866,0.09399507953060324,-3.1413058470045563,-2.890289644486089,-1.029296718083485,0.4743715402856201,1.4217570701455908,0.010503151536516526,0.0012531406951668258,0.0010003741905671428,0.001000000001752487,0.007987046476382,0.456
95,2575,0.20172528364375222,-0.13323542646732453,0.7081980263117594,-0.9481203529271144,-0.11928549526163527,-0.6603988184449613,0.47922599800508603,1.0471975225574188,1.5574635997775157,2.1488708073884406,0.014249775261992127,0.0010000000116466559,0.0010004843879831962,0.008293442439444318,0.014258150462825815,0.958
95,2576,0.0723505484678456,-0.09410884204117614,0.8931870167864379,-0.06304838225205565,-0.07406119655859711,-3.141209249160494,-3.14159265358979,-1.138505858732717,0.33384772068118007,1.071592999236508,0.010608439236025015,0.001,0.0010054354488449038,0.0010000000023576974,0.011938211779782921,0.468
95,2577,0.14429201484196466,-0.1083006072243033,0.6736486027149232,-0.6418662351949626,-0.1520742272420631,-0.48215469999344096,0.5704246823535729,1.081252583381206,1.5730043888539362,0.11399212639638778,0.011402445587013295,0.0010000002546535205,0.0010022160769153068,0.008303510364082193,0.01132288460498075,1.0
95,2578,0.03208209671520463,-0.07308654273674722,0.891932207120461,-0.06426261914058864,-0.06737376862756059,-3.141545697096824,-3.141592653589787,-1.1610226522241365,0.47806844728490194,2.0312876192708202,0.010078350121443631,0.001,0.0010078027878068488,0.0010000000307952275,0.008657136503451525,0.472
95,2579,0.12611140915499092,-0.11592850110904399,0.7427955935145144,-0.7070842442075793,-0.15322735040885208,-0.5058708575623435,0.560392203067174,1.0698394858193638,1.5421818448843982,-0.03748560950534954,0.010328317075892586,0.0010000002591932225,0.0010022671711676081,0.008232632016793608,0.01222433387147971,1.0
95,2580,-0.041886605144298365,-0.0032851039557368527,0.907389229636618,-0.08379950592531275,-0.03032163435812646,-3.1415626883365584,-3.1415926535897274,-1.0768631497932226,0.5072826664435474,1.8961785921670071,0.010058206941682924,0.001,0.0010008686655607326,0.0010000000105498943,0.01094191280919139,0.48
95,2581,0.041222123357950204,-0.12431394937433006,0.7080774489967722,-0.7267163968691589,-0.11134279681065565,-2.7658083083980087,0.4564707274446206,1.0650983351081096,1.5631120396429112,-0.1334862848329071,0.011275211761488891,0.0010000000048519522,0.0010004891696574194,0.005792913510334496,0.011854633173438529,0.934
95,2582,0.03890675208361599,-0.0767721662927768,0.8515899180866568,-0.05745814825990592,-0.06130455612014938,-3.1411256858403975,-2.9656032692658134,-1.0530477618934533,0.4914223145278726,1.3335708277009017,0.010790501110979995,0.0011216842754368786,0.001000866158985785,0.0010000000103475562,0.010901911171341356,0.472
95,2583,0.19459580696875975,-0.1482850660445504,0.637015264092761,-0.8819244948625914,-0.16997983840164307,-0.5164565916416867,0.48599223370391703,1.0240550268061002,1.5229758825465123,0.09092552465952175,0.011767810063406893,0.001000000039809961,0.0010005924235495225,0.008705448199106416,0.011710908197745907,0.962
95,2584,0.006029049793804499,-0.11896373390848358,0.9226249099239874,-0.033631318265687375,0.07666764240023907,-3.14193503234466,-3.1415926535897913,-1.2285948128458333,0.22263255025440556,1.5924594697629078,0.009435732594884018,0.001,0.0010536060573270991,0.0009999999988625765,0.012429680819085699,0.484
95,2585,0.20163581817712073,-0.1347932153333635,0.720541485623046,-0.6313615224868677,-0.13229079358278814,-0.4062738304130679,0.5719522245082317,1.1356143768796696,1.6138521096889482,0.093912389303653,0.015526816109005482,0.001000000904940567,0.0010092075186558516,0.006112848948846457,0.011302478001663603,1.04
95,2586,-0.04305250490105475,0.0447643885237758,0.9152572261375099,-0.054636201735505,-0.07728409434916944,-3.142024481070549,-2.938032174572769,-1.1262307758493264,0.48267056942014186,0.48437531341191853,0.009233707443269635,0.0011448945735571528,0.0010062457294053298,0.0009999999610521273,0.011240592119956634,0.476
95,2587,0.19925172879833017,-0.11444750066020311,0.7116455121312026,-0.6753177271042871,-0.1383740840891828,-0.5343128094351222,0.5811525284003307,1.0865022802464783,1.5567860167072696,0.08893561707219266,0.014217438507366465,0.0010000004830760792,0.0010032958869444766,0.009764163705680293,0.011184453122822192,1.008
95,2588,0.01593182088017172,-0.07285964117159047,0.8961027495657812,-0.04553274077719028,-0.18927918062882193,-3.141673636619647,-3.1415926535897847,-1.1351971501486924,0.21999948554550008,1.5202735575644148,0.009854287849635308,0.001,0.001002575908984448,0.0010000000000521805,0.007386802136133114,0.468
95,2589,0.09749252559181844,-0.12070127177493223,0.7019556620658453,-0.7380132365268103,0.10260951474338398,-0.619475646664608,0.4941831140476024,1.0060156075697178,1.49699841159376,-0.6194860070551353,0.011883780900410574,0.0010000000177274862,0.001000316937192324,0.0060853352879863855,0.01215090789507124,0.96
95,2590,-0.03757796079788169,0.07187029223744557,0.9081112499012439,-0.0492376808521931,0.035401099373201364,-3.1415093229853275,-3.1415926535897887,-1.0826957076198165,0.6212188863021542,2.2189295873957713,0.010144080352426045,0.001,0.0010010192693768174,0.001000000049404647,0.011034613716840542,0.476
95,2591,0.11110561777979998,-0.13231203171006176,0.6796002380911633,-0.6810606867412091,-0.16746771561997462,-0.6703304487615845,0.31148935658822047,1.023465011916778,1.5365114871377623,2.0906534414635964,0.011648642944752192,0.0010000000004701795,0.001000306808822237,0.005888575057765449,0.014509887005258694,0.94
95,2592,-0.03315738919371027,-0.12468290111905489,0.9129878038637458,-0.043409252940343084,0.022551645440457697,-3.1423423458195026,-3.141592653589792,-1.0931018976479294,0.3184628169392314,0.9897690988903163,0.008638173645622261,0.001,0.0010026696767269075,0.001000000000953404,0.009935774115294128,0.476
95,2593,0.19099679265163136,-0.1211616758105076,0.7308753441941493,-0.6795449140662556,-0.139327086266155,-0.5449475843534047,0.5759586531560176,1.1344638123631317,1.6200110565401342,2.2338113923689003,0.013072055094218533,0.0010000001148786622,0.0010025658344139645,0.004990102130684058,0.01418702522295613,0.984
95,2594,0.04181522280792338,0.03702550008775862,0.9096246121441229,-0.0631628569262012,-0.07905462021165358,-3.141852461235645,-2.9742552833711944,-1.1697403512416669,0.5514497743057899,0.5532605737423288,0.009522626282556608,0.0010830857171048305,0.0010153511338620016,0.0009999997695174226,0.011275621929976954,0.456
95,2595,0.15545383318349712,-0.13857028276237565,0.7123613193473602,-0.9524652790561765,-0.11727422074278734,-0.31693715952411455,0.7300306683116247,1.2221813306825628,1.6777092334130297,0.08932036748799455,0.012570837248074935,0.001000012741064731,0.0010379343636966456,0.0055895807004184925,0.01225502116920278,1.05
95,2596,0.003020485991742975,-0.01672532307025658,0.8870981462296758,-0.02445516936699794,0.046334377056668916,-3.1416438635995716,-3.1415926535897487,-1.0646507612428249,0.17453292519943042,2.094002093645545,0.009911724665849454,0.001,0.0010012310565419838,0.0009999999999808487,0.008823838254804163,0.47
95,2597,0.1409870579281138,-0.1286323818592617,0.6763370932666826,-0.715171139467929,-0.07426140756182177,-0.610580309371001,0.4487989505127157,1.0471975150416464,1.5368980666179506,2.2095952723730363,0.011663232347939962,0.00100000000972597,0.0010005862012948665,0.0062585023438098564,0.01266683774465714,0.968
95,2598,0.0394505618290047,0.05950983758002509,0.8591653272036514,-0.08102346300926885,-0.10620981391629998,-3.1420073434413394,-2.9400772065065106,-1.1979918454593372,0.19268434942016452,1.4804278893005498,0.00927692080059296,0.0011442997707605531,0.0010196640100236234,0.0010000000007525925,0.009941711396078646,0.46
95,2599,0.16069496797533497,-0.12138601135522839,0.7298382131456469,-0.8463039428415973,-0.16339264372381532,-0.3974166790754386,0.6785840130883252,1.1477277016688314,1.6295972767479585,0.21292336925077826,0.01223497962337959,0.0010000026660862407,0.0010084075618045354,0.005874212008017445,0.01173562865629067,1.04
95,2600,-0.009616451683861929,0.09476555290530941,0.8792308526130799,-0.08354184986251809,-0.02227862316895371,-3.141494562468207,-2.8299573336695265,-1.2108161321219004,0.32724923474860745,2.2746111808457186,0.01015225560433204,0.001326671827849262,0.0010468403747956592,0.001000000022208485,0.01089449775745095,0.474
95,2601,0.20112925800657247,-0.12385225085268238,0.7021111723421466,-0.6625867805852002,-0.07716408676344892,-0.34370735957509935,0.7487733777099099,1.2208201552296807,1.6901626274663764,2.621100528762971,0.015650558013528784,0.001000018754318376,0.0010452836320728734,0.004825233794434639,0.012992352348111203,1.06
95,2602,-0.10932388418641112,0.10320398321961491,0.9091725185176435,-0.029776312114652627,-0.02340947107279468,-3.1408508437167577,-3.141592653589791,-1.2033259105014003,0.1049889575749832,0.9294353518377176,0.01118052420272987,0.001,0.0010657863236844247,0.0009999999996209976,0.010734736087387271,0.484
95,2603,0.1686693990895845,-0.14377091598301595,0.7358029635428566,-0.9411607677301612,-0.1255583343638941,-0.32221574578080014,0.6916503718504039,1.2083024198328953,1.6710600268365225,0.19473238642736812,0.013108506886522165,0.0010000045828278672,0.0010214451876807964,0.005513988372850454,0.011796130188891736,1.072
95,2604,0.09664379967411388,-0.06093062203921068,0.8522518539643302,-0.07946357213508784,-0.05259260704093752,-3.141005582662815,-3.141592653589781,-1.0881493145177543,0.7371334717693991,1.5981529269602541,0.011001163817550242,0.001,0.0010013971717412187,0.001000000802443667,0.011749586514188904,0.436
95,2605,0.19421988881194724,-0.12181179161381885,0.6901468369645062,-0.8909630317859665,-0.05272294942801211,-0.47439921230715015,0.6248944515182209,1.121385657662503,1.6137162178658513,2.3545319150069983,0.014406034497664684,0.0010000005427923389,0.001003320331715545,0.006784685299247896,0.012033674256917938,0.998
95,2606,-0.047995695506781455,0.01159003513945694,0.9322720229998225,-0.033561877228647376,-0.07540119195560269,-3.1414146069013316,-3.1415926535897416,-1.110316036267207,0.3356770232602839,0.33654560778285303,0.010282576956210194,0.001,0.0010034207805092723,0.000999999999679562,0.01127863097605676,0.47
95,2607,0.14214423871828297,-0.12788567937425152,0.7400634597024907,-0.7369864599794431,-0.10246038084571472,-0.4917277056751541,0.39057638395957195,1.103802534339549,1.5923715623564323,2.311972391861786,0.01322922923250573,0.0010000000183157656,0.0010034941985800619,0.007120298264660685,0.010680286872895113,0.988
95,2608,0.02321798183596176,-0.08093140184856423,0.9370188917090817,-0.05229418050049136,0.006645330159770829,-3.141610232781842,-3.141592653589787,-1.1791250584275903,0.10719345012248385,0.4207252294340694,0.009972782484518978,0.001,0.0010254908679094002,0.0010000000002532696,0.01013446207969222,0.492
95,2609,0.031022153734479536,-0.12382828621918536,0.7677914838067781,-0.756144413276393,0.20126623777582267,-0.35767081195287187,0.5110324049794046,1.2315010850183699,1.7137736519557643,-0.3572336613200532,0.010526152836040732,0.001000000218571411,0.0010273368367303961,0.004488703518272416,0.011813120834944608,1.032
95,2610,0.020310755399634325,-0.05085919762461792,0.9053064107862829,-0.06783342542569344,-0.04357085167619569,-3.1416064914362067,-3.141592653589778,-1.08239738342982,0.4487989505127674,2.2796125745696365,0.009974572648357811,0.001,0.0010012742206408068,0.0010000000051267324,0.011538855461784249,0.468
95,2611,0.15402721483306528,-0.13704579298896213,0.7020327050855861,-0.7471407469582044,-0.18259250063179736,-0.5790001740019646,0.5235987755974455,1.0297442213333088,1.5333752721678833,-0.13598650376972024,0.012927261807793812,0.0010000000544277124,0.00100060515360098,0.00824633597618989,0.012856369220853271,0.952
95,2612,-0.047048484767699066,0.09980206660819438,0.9073767838762179,-0.060480599385231384,0.022742112173628506,-3.141733819306562,-3.141592653589792,-1.035297554084196,0.42839899821677446,2.2496148517689427,0.009739615203437175,0.001,0.0010004468545128367,0.0010000000016252278,0.01016750228325018,0.488
95,2613,0.15387052058426354,-0.11829682014244217,0.7250862601467832,-0.7329981713510175,-0.1402592445323611,-0.652486381806475,0.5055436454051674,1.1013629011640258,1.6208805388286847,2.2400777978949096,0.011453297925342843,0.0010000000074781848,0.0010006563788201852,0.005287902568887363,0.01501131982898622,0.928
95,2614,0.02890451830796615,-0.05375011264134178,0.9553951345647673,-0.04003316804496378,-0.06596742093577021,-3.14159837726213,-3.141592653589779,-0.9591977449278968,0.46639890935641865,0.8551946492320844,0.009989767863579453,0.001,0.0010002418134867344,0.0010000000041186499,0.011499875982970377,0.464
95,2615,0.14237912334197106,-0.14687763264372447,0.7299176629148937,-0.9618337442396285,-0.1495624772292911,-0.5204909444454346,0.5554196956600272,1.0761255639402822,1.5751568472763022,0.04947002169775161,0.011079590461700274,0.0010000001250241577,0.0010013661570093249,0.010236095082800252,0.012535480046252474,0.964
95,2616,-0.04086916766947159,0.0637295366453409,0.8692273338637204,-0.09921063431749225,0.08325717279568805,-3.1415188682248973,-3.141592653589786,-0.9339870046558316,1.0660659748977794,2.461833346513373,0.010137260318504688,0.001,0.0010000151676921023,0.0010000144307983619,0.007886342968112761,0.484
95,2617,0.15168437050707279,-0.10290380529152866,0.710653083006109,-0.671191792235093,-0.1707276960802276,-0.9297373537701012,0.31511415674304954,0.8880489870952939,1.4227867200586886,-0.31124011925370776,0.013296916831725498,0.0010000000000065226,0.0010000036481240251,0.0010137704478733736,0.010613557114905981,0.85
95,2618,-0.04372972927346803,0.05905233885958265,0.864580305227346,-0.07787117391363022,-0.03292762575319772,-3.1414915576216007,-3.141592653589783,-0.9775952961975751,0.6169290709465964,1.1302963558096208,0.010188633865033199,0.001,0.0010000250581119743,0.0010000000036892711,0.010811992541573485,0.46
95,2619,0.19664925361432664,-0.1431607091116208,0.7445485268460214,-0.6542640073179642,-0.239226265731307,-0.8940450598538454,0.31132900170709643,0.9151185804999842,1.443431550833154,-0.03369952658828437,0.013949065109080073,0.0010000000000204004,0.0010000094935770356,0.0010248695005079791,0.01126612489139779,0.864
95,2620,0.06676596439716112,-0.07502706520915742,0.9485856584994167,-0.017725574228413275,-0.031880002927496695,-3.1413619842558242,-3.1415926535897873,-0.8826831321365143,0.7687885345640253,1.699432674731776,0.010433763828843574,0.001,0.0010000055890592155,0.0010000000141078816,0.010961598206122676,0.474
95,2621,0.17910460741915704,-0.11992461733740191,0.7410123748286115,-0.6892018652009178,-0.06119495741304733,-1.05704125769247,0.26818473872108006,0.9003344798874222,1.4367022119900281,2.184536779181143,0.014206095823760213,0.001000000000003192,0.0010000041912942561,0.0010162620405741443,0.012139192358289015,0.848
95,2622,-0.03241471157899971,0.058500947558908285,0.9177373421011028,-0.023636127157256746,-0.06272548551839469,-3.141609719680002,-3.1415926535897825,-0.8585719053061464,0.5658769376031298,0.5645843054919082,0.00996656483600279,0.001,0.0010000011914340348,0.001000000000058148,0.009302155661517443,0.464
95,2623,0.09391166813388986,-0.10123203493052696,0.6976461523152441,-0.7951845117771827,0.06979283615728701,-0.8948705318028818,0.5269768322150621,1.114758682815498,1.6776948344434153,2.431859234700148,0.011517488919912345,0.0010000000000222045,0.0010000213827354434,0.00499522242620814,0.008679587824450509,0.824
95,2624,-0.022925147468988487,0.0,0.0,0.0,-0.022925147467739486,1.3877787807814457e-16,0.0,0.0,0.0,0.0,0.01022470833178103,0.001,0.001,0.001,0.010224708331768263,0.416
