Numéro enregistrement,Numéro battement,Amplitude 1,Amplitude 2,Amplitude 3,Amplitude 4,Amplitude 5,Centre 1,Centre 2,Centre 3,Centre 4,Centre 5,Ecart-type 1,Ecart-type 2,Ecart-type 3,Ecart-type 4,Ecart-type 5,Période interpics
96,2625,0.11643516832251569,-0.10478788580722927,0.2951157399068334,-0.3714373983024455,0.04253557867978392,-2.6788443020336326,-1.2919969787490448,0.1495996501709399,0.7751981872494293,1.8085650330098808,0.008782536519119323,0.0010000000005606626,0.001,0.001,0.009467081217845548,0.254
96,2626,-0.09798402122883572,0.062316321225807596,0.4097407410343191,-0.12365649725222833,-0.251503514689522,-3.1405700852672807,-2.3000126320201,-1.125492693157658,0.2642461110496086,0.7588338751218795,0.011719159178725609,0.0006061413298782777,0.0010000480460511654,0.0010000000000009715,0.01447337869353786,0.424
96,2627,-0.22277255478976996,0.29630362852678577,-0.4015207370120987,0.02669065674106053,-0.07085907980496033,0.19043915485183988,1.00804997904273,1.4582463200336544,2.3587432542872304,2.3582409379283487,0.012660967993844236,0.001000004859573577,0.001007259955825123,0.0006518431985169475,0.008577922369199615,0.86
96,2628,0.11786872101683543,0.21471046973242128,0.42800565171019117,-0.18769917075889667,-0.23588578409446292,-2.874799771956979,-2.2632426116127173,-1.1423973205635625,0.47599888690754266,1.5756661033720685,0.007715149060419613,0.002880632951948945,0.0010001534775070922,0.0010000000004735101,0.01179858707222421,0.424
96,2629,0.13703713868730794,-0.05067908957363244,0.32210367984230504,-0.40320026784783497,0.09848909331316291,-1.0183436295923045,0.5965049342259087,1.1930098651706758,1.6698652011661972,-0.1966147539116615,0.012020333471108131,0.0010000000001540435,0.0010000692214364995,0.0018773987221727398,0.00945172275613716,0.896
96,2630,-0.5258121636528132,0.6463414953915426,-0.08867897765227617,0.3105489452461162,0.1890885120224944,-3.1415869992721945,-3.141072912600396,-2.303834564593185,0.7539822368615505,3.0996934024010594,0.010038342941635454,0.0018866879630248237,0.0010006309573838404,0.001,0.00996852925288681,0.368
96,2631,0.2453365982958,0.1979409372528793,-0.2183535698696015,-0.10583649612809155,-0.32616345805315705,-3.1416147204756895,-3.140408462551799,-1.2725438596819416,-0.3181359649204851,0.27265355946225345,0.009917614903114337,0.001783206453258671,0.001,0.001,0.014854426265874616,0.116
96,2632,-0.4267744940100908,0.6101758056221813,-0.09493315103010277,0.02483192522395412,0.13957954303822237,-3.1415801147414713,-3.141594081691195,-2.6052299618770807,-1.8389810655159766,-1.8375819920214567,0.010066515218931883,0.001000001260768573,0.002109806313354074,0.0010000000000684175,0.00992327046827844,0.516
96,2633,0.1706215034930496,-0.024532500444716072,0.3647507741093979,-0.350242199219855,-0.13839925734885675,-2.7672841218945456,-2.243994708605355,-0.8601979884829198,-0.07479982508547156,1.535000258453128,0.009814748036971839,0.0010004786917877364,0.001,0.001,0.011451013298663616,0.256
96,2634,0.016397239226923804,0.08826724383001275,0.5108848893302397,-0.0732113593655035,-0.05113896640012207,-3.1417095604462166,-2.725583076385922,-1.040590626294766,0.40632586371350676,2.26995629609649,0.009764920872547917,0.00027324283969618,0.0010000093985565164,0.0010000000000016654,0.011629507658991135,0.416
96,2635,-0.0656534969978303,-0.08479325464313908,-0.03779338402884407,-0.043613707164935005,0.05857730572392264,-8.326672684688674e-16,0.0,0.0,0.0,1.1102230246251565e-15,0.008499751211669222,0.001,0.001,0.001,0.010401687787689557,0.852
96,2636,0.05405151521889395,0.04506742102218045,0.4343592938250168,-0.17678731701756278,-0.23120377790225588,-3.142007750122124,-2.9026876486528796,-1.0339418858044944,0.616388432033445,0.6228345117669242,0.009120521044176473,0.001257238489627529,0.0010000063516290838,0.0009999999991795452,0.011091628926490167,0.432
96,2637,0.0012389389843160347,0.27871943993739445,-0.3545738079765815,0.19715480210125916,-0.01628301041791326,-1.333032530622111,0.894757401332766,1.3520777843344338,2.483385703592556,2.4851491688029275,0.010573276943421596,0.0010000003266113769,0.0010009148337028198,0.0023485793238024115,0.008505189639155903,0.832
96,2638,0.0381137921078916,0.3460581862256626,0.5182268675351587,-0.0278359515161084,-0.12034605122053735,-3.1418667051079407,-2.7282251991703483,-0.9991294668581872,0.4429130626372495,0.4405251599192979,0.009408013703379138,0.0017640788514798325,0.0010000010367573467,0.0010000000000005551,0.009214563357905587,0.432
96,2639,-0.009019197490460906,-0.07779143474471611,0.31406611433946274,-0.41473320231788524,-0.10907531235714775,-1.4438706941404165,0.021226977389120272,0.9127600277318202,1.379753514346821,2.187358795932531,0.010229379197308581,0.001,0.0010000000302308179,0.0010002790152521526,0.013393325556611642,0.788
96,2640,0.01976390163016995,-0.06852570306600617,0.49455677151486055,-0.04672824706155343,-0.2050452186517452,-2.817659002019669,-2.7522581144302354,-0.8960556365907708,0.5721801052929862,0.5741369596133331,0.009449995090513542,0.0017002436256588196,0.001000000014766799,0.0010000000000005551,0.01479594996144455,0.396
96,2641,-0.00411820847418011,-0.11382124323490786,0.29167464597266607,-0.47229567558224544,-0.6490721674359039,-0.9774779457612358,0.13659098493868382,0.9351228968869525,1.439458849049154,1.4377242593852453,0.010101680207537543,0.001,0.0010000000707296721,0.0009998898466251757,0.03246593736346356,0.768
96,2642,-0.06999358858753121,-0.049087145620456504,0.6646755730554333,0.018086754093881652,0.13272832299961743,-3.140632967275019,-2.9565064356892274,-1.4591494660255186,-0.1385996758936155,0.9217796825835938,0.011414823988308799,0.0011055662090344856,0.012766661630456679,0.001000000003714945,0.012361042199364137,0.428
96,2643,0.1721511525477239,0.37850111812570153,-0.43649142409086733,0.09563340495976762,0.6474035525934144,-2.845066531778885,-2.0734865207760795,-1.7639541464989215,-1.367446007349892,0.6865881769682146,0.00880420959851756,0.002564520770955632,0.003231073820516086,0.0027983030714009496,0.03188507523563404,1.204
96,2644,-0.21912056665186622,-0.034537565602062774,0.4035401384851639,-0.37109095431251476,0.563760837912774,-1.8965323974641324,-1.0687854060134083,-0.7578658182303134,-0.4728581631503881,2.0132493786910364,0.011578529591171711,0.001020358704461293,0.001022255803793364,0.0010013564156002566,0.030114841750613297,0.752
96,2645,-0.005139597138253811,0.34154667385446436,-0.32895844582891953,0.05687958104351962,0.1677122008426404,-0.5050142223090571,-0.026578507450033012,0.20731186510417687,0.47309760685893,0.8765551943192758,0.010008987346261334,0.0010050476973231795,0.0010117265059225436,0.0010109960769580087,0.012587665671669147,1.188
96,2646,0.006557140720005895,0.460764620873759,-0.42872947167234526,0.10011197723909733,0.15163285008756813,1.142550564514838,1.4560381124849782,1.805551865501683,2.25289336035273,2.2540584972635647,0.00997548902124351,0.005512591544770345,0.0036180314785447952,0.00042201655209917144,0.01494080191118202,1.176
96,2647,0.015216490326379653,-0.03280918449216504,0.5296256174128934,-0.1185203053967284,0.129276189462691,-3.141747775133281,-2.6741611165527255,-1.4626642003302233,-0.3222146311364793,2.4148130192609383,0.009753747932164962,0.0013162357936433574,0.00648056399902891,0.0010000000568389086,0.012305802168375733,0.408
96,2648,-0.04304770451568366,0.4727760149856979,-0.3921728602899233,0.06878462460940461,0.6445570372536628,-2.619332273804109,-2.203803801838628,-1.911118075580902,-1.2432790957362918,0.6173812450190067,0.010414552400212869,0.00239147859414486,0.0027705066488544613,0.0009449413657975906,0.030891112961195448,1.152
96,2649,-0.13908813055971436,0.32575231129661386,-0.3930795646360048,0.03905359305175389,0.03559604329344704,0.06420575992153905,0.881454053884901,1.3786845442857256,2.1471451197795393,2.147539731759885,0.009734247170096908,0.0010000000006603052,0.0010000380753237273,0.000936976974685074,0.010988435739571227,0.728
96,2650,0.08879919123790393,-0.034697605022927624,0.49279748189845435,-0.025885868155018053,-0.13459270130765835,-3.142089735190742,-2.8648357018158226,-0.7987099966753504,0.5218238644945759,1.2451013775827815,0.008845428845919668,0.0012563188676105166,0.0010000000033470449,0.0010000000000001388,0.011335397067613702,0.384
96,2651,-0.12014146951434776,0.27177012580689786,-0.44834901323998366,-0.11669460590183357,-0.09122484592184175,0.26654196447738865,0.8107335880228534,1.2566370536612055,1.9440032890244638,2.3519793641639266,0.01131207557076584,0.0010000000269408107,0.00100015198704649,0.003403661607434019,0.013295971650353301,0.796
96,2652,0.5978615084652313,0.49590471351810733,-0.07655818072741467,-0.04364580343357635,-0.0357103816406861,-1.7918852221023374,-1.5115122020570657,-0.20739120206986547,0.19202889080584457,2.312713025487064,0.02900874135665442,0.0034159256150075997,0.0010000000490001095,0.0010000000223410873,0.00997101936236723,0.444
96,2653,-0.054546771736335764,0.3002060838619181,-0.608732872929296,0.06512195929955777,0.6961351804488524,-2.6950070196359954,-2.2266100710023173,-1.986901314127849,-1.6767229450179457,-0.0771059277329477,0.009907714833888122,0.0019749881666868987,0.0024339289803074885,0.0019764709647508323,0.03220978099223889,1.192
96,2654,-0.11506726600482126,0.30713117901589626,-0.5252693442515286,0.03477970086909863,0.6819967446204243,-2.4107663406256843,-2.0001122774806963,-1.6887888360278551,-1.0224061209048043,0.6493779516826073,0.012954009604695489,0.0026757318125985438,0.004472991727415913,0.001028365248287282,0.03029293671346294,1.228
96,2655,-0.1286946148950687,-0.09045610222343307,0.34709895412009184,-0.4224514857765033,-0.6783588468622614,-2.7932963165267912,0.2967628239547362,0.9312212751641734,1.381482144974775,1.3866968530478703,0.007324943181242793,0.001,0.0010000002445563197,0.0009995109492931939,0.028639367260634437,0.8
96,2656,-0.11651119170985352,0.2151750912279632,0.436715859159073,-0.058574461107490795,-0.20353509551245175,-3.1423090905054876,-2.8781042374981403,-0.9192441526505625,0.4949776206620573,0.753871375165363,0.00837072105407728,0.001340250624776689,0.0010000004201926307,0.0010000000000076328,0.007874158727552524,0.428
96,2657,-0.1655292715001106,0.2982635223759873,-0.4052622194030989,0.019157937646190462,-0.06642605724536765,-0.10783883513038682,0.9251939529946537,1.3725404247455808,2.3893319377773534,2.388846919888627,0.008833781558477164,0.001000000245723511,0.001000794576297744,0.0006897006903304284,0.00860666506327423,0.816
96,2658,-0.0290915446737412,-0.07935134458620777,0.49080739525299477,-0.0421664022809533,-0.1362766638538093,-3.1420276187158596,-3.1415926535897842,-1.0338148347477443,0.1907037074064063,0.19376507316237934,0.009086705411246688,0.001,0.0010000050565447663,0.001,0.011430581500151233,0.42
96,2659,0.05686840290449294,-0.1760296005243196,0.22143348528807696,-0.5067942813612045,-0.12470774372879316,-2.706824931158355,-0.11855066617319965,0.9484053293646725,1.3830909059790568,2.0566415472440913,0.009329169111786202,0.001,0.0010000008945326424,0.0010024567281148302,0.014316104771053368,0.832
96,2660,-0.02355679115195634,0.36163722587274183,0.4742349040341781,-0.040345927761043454,-0.10391322789722439,-3.141380476856176,-2.58485471500386,-1.0207698525655964,0.009910386919841412,0.012266658613149288,0.010405477815384019,0.002103376950081187,0.0010000061706230403,0.001,0.009945614756244848,0.44
96,2661,-0.10025071807736635,0.33494123497552425,-0.4452185323270536,0.08375607825115783,0.25747307361643823,0.29613532057624486,0.9146408991350465,1.352077767010293,2.185726873932923,2.5838484008634475,0.009397164204015913,0.0010000005684805404,0.0010011520023283918,0.002796052719675163,0.007140541451279988,0.828
96,2662,-0.04066358305922929,-0.1670876815033869,0.4698379169492524,-0.019673534125889305,-0.003400595951422958,-3.1422579336117678,-3.1415926535897927,-0.9798536571976529,0.21213326599802185,0.21251913399406339,0.00867981638555458,0.0010000000000011102,0.0010000014171221141,0.001,0.010026788985820585,0.436
96,2663,-0.18286957833005327,0.28394276733973084,-0.5456334173756572,-0.046487403317728306,0.12305802643835614,0.2998784171677823,1.0134169849949852,1.4795882381872072,2.1890395103484024,2.1883168715470807,0.009564898044204335,0.0010000014064713283,0.0010060210715775722,0.0007538655836428015,0.008483080347458745,0.808
96,2664,0.08403919087413392,0.03905105099947045,0.5362857043365592,0.037764599970395586,-0.061853826339005095,-3.1420010405585255,-3.1415926535896936,-0.8605682846461096,0.8398316994745243,0.8394709938898488,0.009086054996325045,0.001,0.0010000000511569953,0.0009999999976560417,0.009857474171145976,0.432
96,2665,0.27088121530702003,-0.1555464180447147,0.30158590333228236,-0.5395169334822656,-0.25386081295381,-2.657297390183131,0.24166097335305803,0.8090389107906406,1.334388840871262,-0.6987880355464257,0.007020623635796439,0.001,0.0010000000051016136,0.0010002271553199707,0.011440488078141532,0.78
96,2666,-0.15575578152713215,0.23949510840220287,0.42714854301004845,-0.06100554930738387,-0.19123769082183914,-2.8313221436194733,-2.1641192300632532,-1.0194572186972621,0.2912734910613053,2.062718564402667,0.009662508448650227,0.0021279825062838725,0.0010000008495287807,0.001,0.011817373842749569,0.416
96,2667,0.027963638225230514,0.2991409541506372,-0.38642991643420044,0.018832321650178847,0.2640295626545079,-2.846357279837044,0.9909721793170306,1.4548314194694834,2.2346945318444633,2.2332451724660687,0.00941432720806555,0.001000000195321398,0.0010010675184886067,0.0015825263778171108,0.007350110618792864,0.792
96,2668,-0.028447362975090443,0.2633511704106143,0.5154304353379606,-0.017949764304490894,-0.09876888072864992,-3.142341165603063,-3.141592653589793,-1.0134169849672756,0.9728803056286884,1.2756873864451976,0.008559624550201162,0.0010000000000220657,0.0010000025531637915,0.0009999999581629107,0.008792824477525203,0.4
96,2669,-0.10421482120620226,0.3210694628469428,-0.4262807054867899,0.009890799117784595,-0.0669014023407794,0.26825435797936537,1.0607975193137533,1.529995546545316,2.244031846934905,2.243489294307039,0.01032153105319576,0.0010000029700211735,0.0010085288008508378,0.0008769349264192421,0.008472652725594011,0.84
96,2670,-0.13134089993561945,0.11681770843308069,0.4647420689956756,-0.0058702370080839245,0.15191911283042578,-2.7882642393175865,-2.176796002135271,-0.7883397295524945,0.7648072003121218,1.6814946867434708,0.008099400980198191,0.0008036324075374813,0.001000000000008743,0.001,0.009085949031313696,0.392
96,2671,-0.1453823464582799,0.0671982710113472,0.15299895563949292,0.2316215350133228,0.15538361244669444,-3.1418473961642714,-0.154966453764522,1.4510495216133696,2.6604549167771183,3.1134040911402256,0.009249758046282986,0.001,0.0009999999865535339,0.002431419012126835,0.009286391022279529,0.676
96,2672,0.6637271098077852,-0.22217491850464474,0.3007753512380584,-0.421889974563858,-0.4562763197985459,-3.141597572372142,-2.5938016605217595,-1.0053096491487334,-0.08377580409572749,-3.141589370161893,0.009945813714615044,0.003830500597859457,0.001,0.001,0.010019849026860301,0.216
96,2673,0.2122567186382804,0.0,0.0,0.0,0.20762489144593307,0.003337134240936617,0.0,0.0,0.0,0.003292678258161035,0.014587841752443749,0.001,0.001,0.001,0.014478778504662766,0.384
96,2674,0.593304018520105,-0.3348158144346053,-0.29712312597024493,-0.07249126451077716,-0.13479143695796672,-3.1416153146068764,-3.141592653589793,-2.57729104743008,-1.19679720136754,0.14641486161680461,0.009796627965381012,0.0010000199559996306,0.0035565874829211076,0.001,0.010864828024798002,0.304
96,2675,-0.025496055753998492,-0.012903225806715213,-0.012903225805466212,-0.01290322580629888,-0.012591182407262203,-1.3877787807814457e-16,0.0,0.0,0.0,-2.7755575615628914e-16,0.00998863334253623,0.001,0.001,0.001,0.009995105323310034,0.368
96,2676,-0.1580915278725401,0.34856921127324575,-0.4304829944394985,0.017004382807224966,0.2072924033034776,-2.168229053017146,-0.9723977261111263,-0.07479982508547156,1.121997376282069,1.1183638735010264,0.009880325547168651,0.001,0.001,0.001,0.01036019887556981,0.252
96,2677,-0.12054111629876066,0.03530749227945819,0.43516182465747333,-0.06234395678153655,-0.14937111188748065,-3.1422774665918443,-2.6043942528577313,-0.9507451451603481,0.5167093180246369,1.2990415427102247,0.008406420366106433,0.00041690155448023913,0.0010000002968020274,0.0010000000000041634,0.008419459464552399,0.42
96,2678,0.15016617319676243,-0.060050483906608255,0.31504883462978855,-0.3743846359549265,-0.06176520642947371,-1.3532754616660227,0.03152099652431309,0.977150892250774,1.4814866999822047,-0.7269126378899675,0.010216407810401491,0.001,0.001000000179608689,0.0010017184728817038,0.010975271206968657,0.796
96,2679,0.0016510607314041844,0.13742494982157166,0.4616396615683784,-0.13812503569977672,-0.21405820651627924,-3.1421400670567903,-3.14159265358979,-1.5272471750310144,-0.06780415799080977,1.4206397560868735,0.009186347719105327,0.001,0.006231267714332128,0.0010000000298275294,0.011579752647060083,0.4
96,2680,0.0973104335597594,-0.1535285409936372,0.23268207948245154,-0.5140607413483048,0.5080265951894803,-3.1402317993268167,-2.4351774110931537,-2.1019457903044296,-1.868798599242376,0.037740735557391575,0.011443623022384204,0.0016021351164563205,0.0020631355354482806,0.0030121073076832387,0.024704125700344755,1.268
96,2681,0.013082373258314796,0.3818420422543901,-0.46732160227703434,0.09184858183855908,0.8010834992067855,-2.3944712475785477,-1.9392778149559737,-1.6567236340842082,-1.0837615279171418,0.6184434210862729,0.010011115466010646,0.0026893654343233117,0.004352711399119383,0.0015398958345990968,0.03695813243918276,1.224
96,2682,-0.14924755036728696,0.30438857353794024,-0.3976542044099527,0.025625716916481932,-0.030130909847176694,0.20156186792502934,0.979197710197139,1.4279965279014668,2.101218500906063,2.100947107481937,0.011374375507454985,0.0010000006170290668,0.0010016845083939538,0.0009056361545261147,0.009285792917258255,0.828
96,2683,-0.08283308657840739,0.1712987054510733,0.643204708458839,-0.07228580608095729,-0.04475664291730529,-3.1423829928708447,-2.707571251695799,-1.5262493398620796,-0.13997194991229162,0.3431105673214484,0.008653543774113604,0.0015447330826502395,0.00938127997918218,0.0010000000100193465,0.010111529692086825,0.404
96,2684,-0.1305052388893832,0.3282180703845148,-0.4870875220199522,-0.02440027362111845,0.6208284150306377,-2.4464225208287056,-2.1546734628820636,-1.8739543246644477,-1.5060508603876512,0.25488477847983104,0.009861394352003684,0.0021837113436661694,0.0028093549486200146,0.001694385517760604,0.027062730365462542,1.212
