Numéro enregistrement,Numéro battement,Amplitude 1,Amplitude 2,Amplitude 3,Amplitude 4,Amplitude 5,Centre 1,Centre 2,Centre 3,Centre 4,Centre 5,Ecart-type 1,Ecart-type 2,Ecart-type 3,Ecart-type 4,Ecart-type 5,Période interpics
97,2685,-0.04546980555211694,0.5207382175383561,-0.5919344700791878,0.1322284262655844,0.6794651420594882,-1.1702339475225672,-0.8996959823237601,-0.7222234127555321,-0.29981708047566,0.7928176510209892,0.010115022991918311,0.019125989812179195,0.020645217959964553,0.004308431548737004,0.03222374343439545,1.54
97,2686,-0.21235518534371153,0.37388842288063445,-0.7161711577334006,-0.11426084385418984,0.5876051333749499,-2.488243985703092,-2.0641292855498543,-1.7977900274465588,-1.2676834609508307,0.5552222789738696,0.012985130907260485,0.002424859011859528,0.0035636501560171855,0.003033008567356696,0.02861770578843883,1.216
97,2687,-0.007068366066823157,0.3724882287070399,-0.4939926595731248,0.06507957228603473,0.15300470763124194,0.5814572026859567,1.01437004159413,1.4476925180322309,1.998689850035501,1.996775740367757,0.010126177326527054,0.0010000054427874707,0.0010067024049632547,0.0017311143186029823,0.010647090953065123,0.864
97,2688,-0.009276727710025114,0.18252760746334645,0.5199629132388189,-0.05747274830115756,0.024281808980313964,-3.141663484122864,-2.6885905924668867,-1.0210176121234924,1.0210176123842836,1.5312891364779326,0.009860091687856716,0.0018565981738722915,0.0010000095370114584,0.001000001054001192,0.009589113569767839,0.412
97,2689,-0.15172236400843753,0.34584242219334016,-0.45823111977037123,-0.05860290701805995,-0.07483435463612774,0.21108222885145164,0.9636787279600466,1.4262437558340944,2.042116899988142,2.5841462901321295,0.012896268453851485,0.001000004629911593,0.0010075881350374008,0.0025384705597928745,0.010529528746661366,0.868
97,2690,0.0022421717840913884,0.08473613143171695,0.5033878376342997,-0.025289703181141765,-0.06949255755189764,-3.1415589861232216,-2.5109361825936105,-0.778011973771731,0.8371014907681982,2.000115161062022,0.010065626572634224,0.001964252963221848,0.0010000000961462854,0.0010000000149082136,0.012407328776605038,0.436
97,2691,-0.1496678466619535,0.35710151679785535,-0.43177056853503537,-0.04657135668669235,-0.023406792994869134,0.3871016034939525,0.9171108988431571,1.3659096677347675,2.340860840240035,2.6343805944619714,0.00988042845656875,0.0010000013356485362,0.0010022134486011433,0.002060050340051431,0.010761531625531158,0.84
97,2692,-0.021794126718602466,0.009526772534009208,0.49580044998742234,-0.00654046986207008,-0.0077689838320676215,-3.011846679957161,-2.8816068543923548,-1.1339476259861792,0.5019112523486657,0.5021408434886993,0.010046841137551594,0.0009100780130811829,0.0010003145549809514,0.0009999999999179823,0.010123128649602254,0.448
97,2693,-0.19086849817995877,0.3045861201064732,-0.46691562461507496,0.04526073758852869,-0.027154187328650742,0.5118555586378755,1.0221898473738404,1.4348150143286322,2.5034330677937007,2.7106770234766495,0.009774144715084974,0.0010000270153510673,0.0010167402558824692,0.0017379109471695317,0.010117956310537702,0.904
97,2694,0.01894792697293052,0.2229223332237573,0.5050931966466936,-0.06205656196162025,-0.04781760233727869,-3.1417872850550754,-2.215415714033159,-1.0348775759769717,0.5174387900030106,2.032266121579638,0.009633350422130023,0.0029454956397399062,0.0010000871930279367,0.0010000000016102397,0.008550001690116561,0.436
97,2695,-0.21905649002546337,0.39200944048850844,-0.5048637417283909,-0.004126536248335079,-0.02456028850975525,0.44952231260648035,1.065732016272861,1.4920152165435903,2.251951395213206,2.2524030243194484,0.011096738760540776,0.0010000984824388012,0.0010653329227084942,0.0009589250774121447,0.010169290846734373,0.924
97,2696,-0.15545928771577758,-0.03601113126512979,0.45729863802216597,-0.09753398211997392,-0.1855431053784163,-3.1406298424704104,-2.831147097635014,-1.1324345319093407,0.25571102994335515,0.8257191606524976,0.011367416481671512,0.0012175043334322335,0.0010004647854223716,0.0010000000000265066,0.014149736347825277,0.432
97,2697,-0.19177471749728633,0.3174164776827768,-0.570538665175581,-0.0517189286254791,-0.1736649662534556,0.2761693687694541,1.053250709730402,1.4345932422513914,2.7242074405289927,-0.3975054771892712,0.012664490015488914,0.0010001220189690954,0.0010500474833359244,0.0002785631590855317,0.013414162360421032,0.944
97,2698,0.039695632999398454,-0.11431696696943493,0.5788244435781404,0.03666522435035624,0.1868506131503708,-3.141652199182075,-3.141592653589792,-0.9749770303140101,0.9749770304191033,0.9714030294043926,0.00988363415466524,0.001,0.0010000042372357012,0.0010000002039737823,0.010063671160505201,0.44
97,2699,-0.1256004859371781,0.36667707933537447,-0.5358400183220815,-0.1219080960007459,-0.11075205836248211,0.381100958280689,0.9345243969347508,1.3719612047510386,1.9877107201559456,1.9868059177909956,0.011213584590781906,0.0010000008984295946,0.0010018767064862563,0.003211612581614187,0.01213069303209832,0.836
97,2700,0.06045543309562347,-0.0512118331385185,0.48778835024346673,-0.08609520782579291,0.010419272246288606,-3.142049966656476,-2.792855330462079,-1.0149760876181089,0.5316541413767336,1.9042887981993246,0.00905017880021129,9.28928565303607e-05,0.001000013930424314,0.0010000000003010092,0.009895417270222957,0.43
97,2701,-0.11033561757144168,-0.03706117376198125,0.4055595979448136,-0.4081380207256273,0.6403295057722762,-1.594699713809726,-1.0274973993128886,-0.6377572945753864,-0.3779353735957433,1.8758570695996493,0.012375514070604122,0.0010687933021709109,0.0010602660581514036,0.0010055688669860221,0.033120669314232465,0.87
97,2702,-0.17160177992830564,0.30420763997778544,-0.7029389871490652,-0.17413039061405047,-0.18889735077518632,0.9614554417196548,1.3971930114127196,1.7469617933185968,2.4076442827422997,0.5900001663185351,0.01434953890480521,0.0047500580048349126,0.0038458645836603198,0.002056658705663354,0.014065312380175067,1.256
97,2703,-0.010227567412438156,-0.14342943778191836,0.4268446875514298,-0.06230517708297833,-0.0734680174771184,-3.1416617630446773,-2.684481162508053,-1.1991568118220428,0.16847657763730506,1.4580071633820038,0.009862132490074211,0.0018715868758464582,0.001000111624648691,0.001,0.011768638370219199,0.416
97,2704,-0.07330859745857408,-0.14785362886831088,0.316294148567551,-0.5649683761655595,-0.7594541742569245,-2.6102288526394117,0.1477237924885454,0.7583154681073685,1.2113351094840095,1.2257350649847967,0.012673072482467058,0.001,0.001000000041228132,0.0009997887792997642,0.02565454814293605,0.852
97,2705,0.03766994898919754,-0.011287825370062331,0.52356744939445,-0.03667088020909388,-0.11350508422686702,-3.141327485213274,-3.141592653589742,-1.1021325044939771,0.3811112399436798,0.3785816701136219,0.010528181124477383,0.001,0.0010000071880407182,0.0010000000000001388,0.009083455975931421,0.468
97,2706,-0.2871194991483721,0.24882921929321933,-0.553765360014574,-0.12953755817023263,-0.1661558799708626,0.19751639966762974,0.7561121301860151,1.224688660801753,2.0340668062641867,2.036151743067172,0.015178413815054538,0.0010000000006478152,0.0010000220506779503,0.0008734796032015541,0.015474810381782373,0.752
97,2707,0.015092163649931795,0.022118929494673308,0.5160815102439338,0.04952611640345992,0.18727959871142427,-3.141480201483254,-2.8133979186965212,-0.9445311246015908,0.67759841548015,1.2498756833123357,0.010228025123733926,0.00028181648701453027,0.001000000410895068,0.0010000000001566802,0.0078052955317168705,0.428
97,2708,0.06836984117130962,-0.12311042955998586,0.31508500930049843,-0.5051604585310466,-0.16264313583582357,-1.4785212843462487,0.08322099744608691,0.936236221266652,1.393951657760464,2.1443888421683757,0.011831435205954975,0.001,0.0010000001212469014,0.0010007521201903643,0.015406650512620008,0.796
97,2709,-0.11998273265665774,0.09142850396778229,0.43301258859286584,-0.014094560090583732,-0.04353913909044831,-2.917442588689046,-2.2430118214746573,-0.8567979964325125,0.3467991890326396,0.34789876090966354,0.014209865266735745,0.002589305844712748,0.0010000000807093281,0.001,0.010515345228541513,0.412
97,2710,-0.2645695371206479,0.28295325550697875,-0.5703683168222066,-0.1333029136283681,-0.14358371271266882,0.07604966460193036,0.8990409844647289,1.3435106285281087,2.5543444756653884,-0.27637363569301726,0.012882656572064414,0.001000000184720364,0.0010008491110839448,0.0022346498819211125,0.011211915196910225,0.82
97,2711,0.08659790127697159,-0.008663564569458677,0.5279209300081842,-0.09650510161824223,-0.10515345388090104,-3.141050212502758,-3.1415926535897354,-0.8055365778427583,0.6242908478287392,1.37157817987899,0.011034627288912897,0.001,0.0010000000633795794,0.0010000000002697842,0.012815200369892489,0.424
97,2712,0.15800134184890413,-0.09395001507778804,0.33646061246692377,-0.4773169814984231,-0.6219442763194879,-1.46129679196494,-0.06850825101286162,0.7927383331471538,1.242935402350711,1.2348537595873974,0.014366942024448227,0.001,0.0010000001123060672,0.0010001504072532494,0.023987279254247686,0.82
97,2713,-0.07908105224397372,0.07314144966896155,0.4728974493749132,-0.10613862638920286,-0.07904464791166982,-3.141212103421586,-3.1415926535897856,-1.0061309805350016,0.6981317007977288,1.9516300413876058,0.010743281468326106,0.001,0.0010000012320773568,0.0010000000005240253,0.01246074105533841,0.464
97,2714,0.16213058560006377,-0.17527746413285206,0.27480041610266864,-0.49454025844941363,-0.1075944290194801,-1.5331598782321187,0.052185924478236584,0.7827888671735095,1.2837737370824995,2.3285908209445294,0.01283376334384227,0.001,0.0010000000036720627,0.0010001078477915306,0.01369068340910713,0.764
97,2715,-0.004220893825471374,-0.097033112513415,0.4676374154461417,-0.10972880148535623,-0.21320006055929733,-2.934244183730812,-2.621953841778465,-0.7983585291299681,0.902041454990795,1.3812446707224382,0.010197530160554425,0.0020220434362635494,0.0010000000121183619,0.001000000024477087,0.01617755075488487,0.44
97,2716,0.30540466100420716,-0.1319622033879623,0.3484028532421107,-0.491999072292056,-0.09509994369350941,-1.4777253984011227,0.11557698725581167,0.7880249131077812,1.2923608527833403,2.5518045344389844,0.007112475726745047,0.001,0.0010000000037263248,0.0010001011755657032,0.009611638192142486,0.772
97,2717,0.08724027095815913,-0.014461044833129887,0.40796540050277047,-0.13697998540909828,-0.2651673708503606,-3.1421484292343655,-2.8573116381087273,-0.9658618190501235,1.0878654172330542,1.0862808337369867,0.008757900021597693,0.0002702273358601018,0.001000000731762706,0.0010000009767663067,0.011584097854442322,0.424
97,2718,0.08264231515014706,-0.01091926639306839,0.4313599329285529,-0.3703531141777819,0.007382818086309581,-1.3727672656549457,0.4429130626372495,0.9579282517434545,1.4111415504178078,2.2557357151958333,0.012076171935441844,0.001,0.0010000003889319422,0.0010009392716480983,0.009855501914555016,0.812
97,2719,0.11268558971521472,0.3769630025939724,0.5074581690744319,-0.05151524530048651,0.23456904066582565,-3.142275643126618,-2.2497866888361324,-0.8182283117058233,0.8384314798968215,2.0891830240775553,0.008446782591049569,0.0030721749706142543,0.0010000000677861933,0.0010000000102844122,0.007046294392703973,0.408
97,2720,-0.18437085354817317,0.35002797573192324,-0.511706549651573,-0.08809779161882093,-0.10693888750894168,0.3849278636574428,0.8906072631523051,1.3408042131268338,2.3000888088141447,2.300613952051366,0.01354831153903775,0.0010000007186669315,0.0010016837400208803,0.0007239696615237863,0.012730696963561368,0.836
97,2721,0.043375416426920325,0.031682507344686965,0.517723733942387,0.03219991053158795,0.27023223285402764,-3.1418193137583694,-3.141592653589737,-0.9817477041162923,0.4908738521234053,2.0595231087756893,0.009540021920615522,0.001,0.001000004798239861,0.0010000000000208167,0.006443982138810341,0.444
97,2722,-0.1575041726094285,0.3384475549099065,-0.4861105476402908,-0.06333855389970837,-0.0440416427294831,0.2086385875677112,0.8865844298201602,1.329876484506222,2.158698660451823,2.15919211642833,0.011162442496927506,0.0010000011899627117,0.0010020191688326898,0.0007465915390788924,0.011516112665049495,0.836
97,2723,0.12797532173072587,0.2057615301717066,0.4006371820589294,-0.2325690226496158,-0.34993070927071673,-3.1423498029708488,-2.800199218361381,-0.9596504890215843,0.9394473208504194,0.9424675847841208,0.00825771687938094,0.0019458251620399203,0.0010000008285692965,0.0009999998948331526,0.02089686898348421,0.472
97,2724,0.07018766575798373,-0.07317898641891515,0.40802240902674,-0.3376360321509274,-0.030660345015024168,-1.4028707050273517,0.1698158191129585,0.9127600277317162,1.3797535173226108,1.973872410238281,0.011764226375200982,0.001,0.0010000000392752497,0.0010002269894708307,0.009399742804193463,0.772
97,2725,0.2097461559166235,0.04883385497826132,0.41482788080594624,-0.08869205562457651,-0.13428710434800267,-2.9182946076082237,-2.2494169591561515,-0.9526119659142519,0.6080501910173778,1.9273726325324714,0.0068658095244634,0.0009442730983886808,0.001000000659754057,0.001000000000125594,0.014299728939387813,0.412
97,2726,-0.18174587687560553,-0.10543876631013527,0.35645311992580886,-0.4374474301944978,-0.2855278323020674,-0.7228902360811197,0.4234748718005048,0.8961910077511538,1.3098175743404232,0.06545986145330024,0.013271258848145907,0.001000000000011935,0.0010000006304465283,0.0010007674896990162,0.010273518152042705,0.828
97,2727,0.0732518266525057,-0.04483728233183653,0.45742360757309714,-0.03281745909624614,-0.09361895676523535,-3.141865389552562,-2.495288592806299,-0.48427712841897996,0.9561368945708066,0.9585549011602731,0.009289543880932711,0.0020609440643066536,0.001,0.000999999999998196,0.011799332387024781,0.448
97,2728,0.0,0.0,0.0,0.0,0.0,0.0,0.0,0.0,0.0,0.0,0.009999999999999827,0.001,0.001,0.001,0.009999999999999827,0.564
97,2729,-0.5812675100092669,0.477029072139049,0.3598073189557219,-0.46068038380347015,0.2059592658075343,-3.1416177824001386,-3.1415926535899605,-1.2196771478642725,-0.4435189628597356,1.4386061311756837,0.009791171502362929,0.001,0.001,0.001,0.010105488163733673,0.228
97,2730,-0.18933101347455356,0.005814903482462494,0.4422093143229299,-0.1081970037446818,-0.11526865219318459,-3.1424211253611336,-2.854517295669384,-0.9034645539712022,0.5338654182570894,2.1756051709726196,0.00800500595222113,0.00031766318949574926,0.0010000001567727892,0.001000000000013739,0.007730370674424418,0.452
97,2731,-0.11610708199122283,0.4332750161779557,-0.5104020381309656,0.03607454436725778,-0.07033145907263341,0.31590448265146864,0.8490790955647093,1.316072592643916,1.8892042919494287,1.8885899895878753,0.00935549532102213,0.0010000000106283038,0.0010001158511218902,0.000981730422544124,0.008798400207120595,0.772
97,2732,-0.12847742239849919,0.03880307099331641,0.4538820921021643,-0.14171151975894128,-0.21559501565934247,-3.1422868798618993,-2.7243479076482386,-0.9915325650782638,0.8871607161297983,2.017640552029544,0.00835889530022514,0.0003224433630363566,0.0010000004565953171,0.001000000017270213,0.011612269303256885,0.412
97,2733,-0.09757721623245674,0.33146644505904405,-0.5535395267413098,-0.03911578616975369,-0.06358510094873368,-2.876168567327608,0.795598139545276,1.2647970334136485,2.32563070286439,2.326163156058075,0.007705034067451825,0.0010000000178329574,0.001000176793079898,0.0006968432610254603,0.012124179299428757,0.792
97,2734,-0.08939360929370219,0.13244442642861373,0.596870719951235,0.5680546427925103,0.06436306384253249,-3.141315201883874,-3.1415926535897922,-1.2899254525914012,-0.7073784782917363,1.7280834036528592,0.010570029302267815,0.001,0.0010001600285888526,0.0010000000017218172,0.01195556271646382,0.44
97,2735,0.0777450843083528,-0.15258564532583074,0.3637060435455162,-0.489411657558218,-0.1065347301289453,-2.6603303875909265,-0.08377580409572749,0.7958701389093694,1.2775810085308572,2.179286501775303,0.012735848771735876,0.001,0.0010000000054596605,0.0010000865449752141,0.0136072888051333,0.768
97,2736,-0.047076439182666595,-0.08770274489623048,0.4212671904831175,-0.14648441110611796,-0.22801410746446266,-3.141156015772071,-2.8694144996980113,-0.9080350859202561,0.7827888671735215,1.662770484918025,0.010859462405675103,0.0014066288260336226,0.0010000000789439347,0.0010000000019563518,0.016848215273625997,0.432
97,2737,0.29140647171549994,-0.11516041193926001,0.34562078247740247,-0.5141220167646987,-0.02619667321460125,-1.4651329196911052,0.11635528346628865,0.8356424903487358,1.3010636196162726,2.1899997960859956,0.014153613815081024,0.001,0.001000000007471107,0.001000099806935494,0.01097845440133023,0.772
97,2738,0.044655505620625736,0.10929496340168221,0.5203408395061231,-0.0644934857574634,-0.11520521931780756,-2.8910063300930915,-2.472266630277379,-0.8454119765471365,0.8245376067561062,2.3685429882060203,0.008916588420112377,0.0024144225311260193,0.0010000000265090727,0.0010000000021131708,0.007875516827185833,0.416
97,2739,-0.2614654734708576,0.3127788763792357,-0.5413241180758319,-0.05360974237413024,-0.22317036853823857,-0.1064886403034486,0.7879564636038332,1.2586836946895315,1.9543475563601533,1.9523597284132665,0.010873403695484491,0.0010000000123022426,0.0010001415937656013,0.001570799285362078,0.0068511547041512685,0.788
97,2740,0.22286943293703265,0.0,0.0,0.0,0.22308651229707577,-0.003140334867212939,0.0,0.0,0.0,-0.003208414706876721,0.015032884370267214,0.001,0.001,0.001,0.014998286867711581,0.44
97,2741,0.30302064928635863,0.03156654329616615,-0.05588804131534783,0.006855588157771297,0.1896131285112328,-3.141592719354778,-3.1407452962895337,-1.7571619926858164,-0.7987099966753712,-0.7960633975281346,0.009999628088056085,0.00013540466537895212,0.001,0.001,0.013305232650809113,0.304
97,2742,0.0,0.0,0.0,0.0,0.0,0.0,0.0,0.0,0.0,0.0,0.009999999999999827,0.001,0.001,0.001,0.009999999999999827,0.168
97,2743,0.3115828782163072,-0.05362608695194859,0.3280512093191888,-0.4950914879897904,0.3715415288452023,-3.141592733221702,-2.0766459913559205,0.10649466622338233,1.331183327792285,3.088143117037694,0.009999574081456615,0.001,0.001,0.001,0.010006785126128832,0.256
97,2744,0.0,0.0,0.0,0.0,0.0,0.0,0.0,0.0,0.0,0.0,0.009999999999999827,0.001,0.001,0.001,0.009999999999999827,0.304
97,2745,0.01616367081319619,0.0,0.0,0.0,0.016163670810004298,1.1102230246251565e-15,0.0,0.0,0.0,-1.3877787807814457e-16,0.010122712631341164,0.001,0.001,0.001,0.01012271263132576,0.12
97,2746,0.6135591685194932,-0.5779032975363438,-0.1589522271177365,-0.11986503501862208,-0.17979969598055753,-3.141592659354621,-3.1357822981387313,-1.9671654933693097,-0.9101810491708746,3.0828397588192793,0.009999965888036156,0.006334992284503353,0.001,0.001,0.010001979058503847,0.112
97,2747,0.32812217717469294,-0.5511627634168641,0.03566717318098469,-0.04937733201219975,-0.2987137304537475,-3.1415918821740343,-3.1420059789039363,-2.3969188694760435,-1.6522450252212986,-1.6488688934238345,0.01000354652158096,0.00260538615914376,0.0009996233977934968,0.001,0.011907732830498353,0.316
97,2748,-0.2673147379689737,0.31810746381339516,-0.4845305158885895,-0.058581040222050386,0.09468854188510072,-1.4513471948125862,-0.6613879270715355,0.06613879270715373,1.7857474030937834,1.7850322988432856,0.009493293475493726,0.001,0.001,0.0009999999641571436,0.009574457731316528,0.312
97,2749,0.1296563456137001,0.04692742683006758,0.4611300893516171,-0.25486329457055906,0.16427838840141185,-3.1417161949185664,-2.6129011161748013,0.27994389982483314,2.641459272281406,3.1104738184193894,0.009604807554475748,0.0005952810911670311,0.001,0.0027583787887606316,0.009521009059960768,0.448
97,2750,-0.6699494282863193,0.7573426713307697,-0.1010965516039511,-0.08941064908113495,-0.17821430903440855,-3.1415926353856216,-3.1416777889647203,-2.0488647740802555,1.2293188644481798,3.0869194294054614,0.010000212667121934,0.0015820148253753155,0.001,0.001,0.010001690307099532,0.36
