Numéro enregistrement,Numéro battement,Amplitude 1,Amplitude 2,Amplitude 3,Amplitude 4,Amplitude 5,Centre 1,Centre 2,Centre 3,Centre 4,Centre 5,Ecart-type 1,Ecart-type 2,Ecart-type 3,Ecart-type 4,Ecart-type 5,Période interpics
99,2780,0.056554024686663346,-0.07875267682948991,0.6519388042108054,-0.07048105576556711,0.333239828108601,-2.8478563648360273,-1.5456164902490381,-1.1382083123921312,-0.7206771159683318,1.7398132587538095,0.012014299853943628,0.002445289258830882,0.012041344304353318,0.001000452213654023,0.016011169868955906,0.708
99,2781,0.04619620339791845,-0.06501174773687002,0.4961782899365805,-0.07045696077115754,0.20978167838556444,-2.9559891169633348,-0.2472066168594689,0.030900470912167757,0.3399085019466003,2.1515273145134244,0.010667018499375637,0.0010050215052276037,0.0010161625848600633,0.0010098935583520837,0.015127248510151984,1.228
99,2782,0.09881861681184914,-0.06334190209656382,0.4536792469760519,-0.09838296757898314,0.24104248353110352,-2.194696458018853,-0.28087017104323875,0.02080504413613335,0.3016747973452465,2.1007500051560197,0.010399457782371098,0.0010050419875530922,0.0010113631479417564,0.0010092188179599134,0.013233458379132866,1.212
99,2783,0.009792715452345046,-0.09730938164197951,0.36871667849142103,-0.09637224683346306,0.14365548480735799,-1.3420765296351307,-0.3870388576409681,-0.10555527220035672,0.21614023386226305,1.864818987067244,0.00997358307372252,0.0010302164082994355,0.0010256222348307689,0.0010099361066115134,0.010836423143200059,1.204
99,2784,-0.03129690137377289,-0.041370887914114036,0.6073587411245872,-0.031502905999676,0.31397343454649607,-2.9397993907789894,-0.42650914981251487,-0.16825014549242878,0.14217255728355224,1.6651072090315733,0.010076494852879229,0.001060013336547135,0.012327285127906542,0.0010066256188348268,0.017522520817593396,1.296
99,2785,0.0642659898690619,-0.054881504385531375,0.778342905309718,-0.04945752657645431,0.31698397156872626,-2.944485951115316,-0.1568514131685615,0.10172130545069524,0.3809149261319199,1.877719171435863,0.010300493976507117,0.0010303677387116647,0.01824631077059935,0.0010862092641285006,0.016695305930618014,1.444
99,2786,0.021178204722186875,-0.06164364718506715,0.6497945805766033,-0.010624662478109424,0.2560410459602783,-0.2667736957101824,-0.08891264400557874,0.1974300156625749,0.4840807061999701,2.103382265736823,0.010012787468062943,0.0010047021510952289,0.001652666830584861,0.001006082215473907,0.019117350089195947,1.36
99,2787,0.18866860685507456,-0.022503532109060805,0.7005899572686242,-0.02371037738671123,0.3751928711795433,-1.3275929407862421,-0.46597943435213063,-0.1653300331666058,0.15532571619019805,1.7999118567267218,0.014758523935627542,0.0009913406738231286,0.0011231283637472686,0.0010013608995420161,0.021368441989258587,1.186
99,2788,-0.06636848458750007,-0.14012375006938302,0.6160237994271589,-0.1395115453045868,-0.06368433564128806,-2.9526876562540187,-0.15906639711528964,0.13917304622478588,0.43741717676031877,1.0638583634965955,0.009648843298960845,0.0010135397698110967,0.0010953214572969874,0.0010953463984691705,0.010149120712362415,1.32
99,2789,0.1472071833320484,-0.08506659687401233,0.5759912919794925,-0.1345111085122665,0.2615071559555856,-1.236738319778516,-0.287499257992828,0.01568164841176241,0.3293162546894236,2.181141825325917,0.012147623896248292,0.0010065453526741644,0.0010131382246027628,0.0010143088101907385,0.017513712696731333,1.208
99,2790,-0.023576345982385172,-0.09731323163664699,0.6061608606024123,-0.09962404833348601,0.022583232657489898,-1.7165798054139805,-0.28173266504447747,0.02657841138302848,0.3667835096020477,1.164131285447221,0.009675278962878826,0.0010052750792494533,0.0010093566201384704,0.0010097326901259132,0.01000710969777707,1.198
99,2791,0.10610239390945386,-0.11118394196452243,0.6222908813930098,-0.07447282080467175,0.00041655073528351557,-1.9060621193763092,-0.3598051289715945,-0.048331893303492995,0.4027671749383702,1.1975717366492964,0.010418849082167543,0.0010086162523511152,0.0010078591845475984,0.0010075850662684118,0.010012991529644048,1.164
99,2792,0.25045587207343023,-0.013454847466421397,0.7047511897180683,-0.009974438474416595,0.35158719258996146,-1.2697080294084762,-0.3455218847247073,-0.03720971864138542,0.2817332835476111,2.1728146553605447,0.01417400473372246,0.0010010534018337477,0.001011282767935078,0.0010005028747730035,0.02012819037274277,1.172
99,2793,0.047707782753696804,-0.08359137147080677,0.6486585935640342,-0.07164165327170255,-0.0731728067707623,-2.8802124504892923,-0.3920436275595573,-0.0470448465604289,0.2770449056839169,0.27685008282128065,0.009668062690984134,0.0010129710675507433,0.0010159127226974365,0.0010049046360815763,0.009912800386993837,1.192
99,2794,0.034718684757764406,-0.06956222606893275,0.6760959231512901,-0.0887999719900199,0.2188790540362807,-1.194903423806196,-0.2987097688229887,0.0103000906209375,0.30901040208404795,2.1835859580402626,0.01012443120238289,0.0009935440826241695,0.001022953659137015,0.0009913487703694093,0.009911025440517791,1.216
99,2795,0.17814016156884077,-0.059083650236268055,0.8403602898646801,-0.09141285009863023,-0.033232101161004696,-2.4086881550757746,1.0827821922360679,1.5062364867840394,1.9673856524593776,1.9678723182896223,0.0064155343226056675,0.0009978089273129645,0.01507909564754492,0.0006562159327268097,0.011306212618900592,1.224
99,2796,0.10176337373522636,0.2320154580582351,-0.009690112882419685,0.04556083056473001,0.23865509930273057,-3.1421880724422744,-0.8680716542810172,-0.10334186360492748,0.3513623362567535,1.4643557194886816,0.00863197029409203,0.0010000000300515169,0.001,0.001,0.007284907029383163,0.424
99,2797,-0.002295677200853144,-0.08868123804759462,0.4896677715376133,-0.07260257001886475,0.013552513056284464,-1.264365273717949,-0.9833368307276449,-0.5874514976307359,-0.19156052628948925,0.9962918405613099,0.010097778786562163,0.0010393356458427974,0.001007437964456014,0.0010000241253877986,0.010189915331946476,0.792
99,2798,0.1615038365774563,-0.10097241946114462,0.39271077874239235,-0.10066463342794106,0.021759265215737473,-3.142732896775992,-0.2913779016920278,0.03708437051742239,0.38674052113114,1.5628997806195364,0.009058579704755666,0.001006071998630841,0.0010064536880285682,0.0009900148136586231,0.010129809742510194,1.176
99,2799,-0.03283277423843087,-0.07206636385577092,0.4071862651118021,-0.04898770147387496,0.16974836547056968,-1.8349726652441878,-0.57645118027915,-0.2396522432725073,0.11528683494756581,1.60481355755227,0.009903566361947847,0.0009399030703731152,0.0033533136172230996,0.0010040221373778793,0.010944007459744677,1.196
99,2800,0.05755303906967822,-0.08855499040355812,0.58054736597588,-0.0685602463786856,0.18751991210621227,-2.9767003781162558,-0.2864012152607752,-0.040342954547938153,0.20826533748767342,1.7359966593253024,0.009916995395263901,0.0009408250112765963,0.013325181238446683,0.0010951530081171048,0.012806358146246017,1.42
99,2801,0.018382561576927848,-0.08561437643710657,0.6615241086944751,-0.05922489821776894,0.2510657995207693,-1.2871170140651405,-0.20324286081339898,0.0238882867201501,0.27945343361406166,1.8462146298936042,0.009988357895126003,0.0009492529322714375,0.018177913159156112,0.0009468422136623265,0.014217542334971104,1.476
99,2802,0.038708666761597524,-0.0686845060986001,0.7091894363683034,-0.07190475849946137,0.31141495540075537,-0.861486140473113,-0.17570525050181912,0.06258349196714146,0.338475405069846,1.8213746612443273,0.010019519798025551,0.0010574824485721076,0.018670226662957777,0.0014112988277123891,0.016545957862268687,1.492
99,2803,-0.014061124786099796,-0.05723259703855878,0.779241942510049,-0.06570285786387108,0.32601838510403386,-2.106393123158379,-0.18002906961248671,0.06441043783065595,0.34204251934231034,1.9626291283176385,0.009976126309995488,0.0010326818397140827,0.017693737861401784,0.0010984698548458368,0.016349702201517338,1.44
99,2804,0.03705320939767868,-0.06817833341068218,0.6092600109117806,-0.09486941986383715,-0.013781333330666133,-0.9167349746692366,-0.1814273986987605,0.10472842638522659,0.3819410351927287,0.7352517328705727,0.010057083906673354,0.0010144131445133783,0.004624528701661118,0.0010747700847156252,0.009983082773626943,1.352
99,2805,-0.0016997257830284136,-0.09444579116528305,0.6281243689809111,-0.11107334655662086,0.2655720664282214,-2.9985616044275916,-0.14813963080999212,0.13791912687303998,0.43419715025582994,2.241774246251609,0.010031126109924264,0.0010048842270591182,0.0010419605460490191,0.0010371620868336309,0.01654845427859692,1.28
99,2806,0.12591558322061636,-0.09057852670997332,0.6668583802640792,-0.07556179381622664,-0.0016269202830186862,-1.1814840877226347,-0.23412191207417415,0.07078077617046954,0.3974623884449798,0.985495274739578,0.012339522819024657,0.0010021884708837489,0.0010065170307866208,0.001005766402155008,0.010005897187266534,1.18
99,2807,-0.03671522485118192,-0.09713314502399086,0.641677878238163,-0.07770425456822935,0.3786433877943888,-2.9723749378209536,-0.32149128446249486,0.005640193146919357,0.33277171827355345,2.250608626077831,0.009668968936186765,0.0010021496122840081,0.001002203060529421,0.0010018646664218247,0.019620079999747533,1.128
99,2808,0.07372471502218145,-0.08142405616356191,0.734464530338889,-0.0905753977634844,0.0440918073036787,-1.3430615135158932,-0.3528598274578001,-0.034147696494065266,0.3073295558794075,1.1380868430533821,0.011056866778105271,0.0010018940941848983,0.001002078733852412,0.0010014873809641575,0.00972922545097221,1.1
99,2809,0.004313554605683238,-0.08748514734290601,0.7124824585335997,-0.06531809687371372,0.001683963556272866,-0.5656260416742093,-0.3415988909318913,-0.03919981991321389,0.26319949775561313,0.868004544725337,0.010019185526211087,0.0010026000810188914,0.001003106148107196,0.000998972636879313,0.010007433862230892,1.108
99,2810,-0.027840955586078023,-0.03583497182791539,0.6040756391754306,-0.015112457323385018,0.28835466412516225,-2.8819343943180593,-0.4621529823858559,-0.17135582757694606,0.15058880412071018,1.9363514576559153,0.009892231440463304,0.0009919699639385623,0.0010326316201478688,0.0009995667754826984,0.013800584536913752,1.136
99,2811,0.04307727424668392,-0.04968473835545989,0.5264686783762137,-0.0691159811039576,0.30390991712619986,-2.973109921295155,-0.22793793635360043,0.04954963835787286,0.35677024001421886,2.0413202587175716,0.009792749184646494,0.0010067766360512672,0.0010486614323212675,0.001021075909424212,0.01711538146865811,1.284
99,2812,0.009358552104318085,-0.08924716391186911,0.669455115147043,-0.12676433625472464,-0.03711539309344927,-2.893620986769409,0.7853980018930886,1.231045124188046,1.6806647943197088,2.204913843001992,0.010726917300433137,0.0010015240335250744,0.013236874945659559,0.001322986351024429,0.011041827916577233,1.252
