Numéro enregistrement,Numéro battement,Amplitude 1,Amplitude 2,Amplitude 3,Amplitude 4,Amplitude 5,Centre 1,Centre 2,Centre 3,Centre 4,Centre 5,Ecart-type 1,Ecart-type 2,Ecart-type 3,Ecart-type 4,Ecart-type 5,Période interpics
145,4261,0.2882753185413748,-0.2218663671384006,0.1609492173739529,-0.2063520401552862,-0.1871586184094006,-2.6115455780659653,-1.2990432714724085,-1.2298438045461946,-1.1607572372868806,0.0622721078270722,0.0190047589076311,0.028751305391982,0.0128760796471023,0.0253893234420228,0.0266687349431246,8.002
145,4263,0.1432787055383181,0.1432839034645742,-0.0237736063985493,0.0010512251757313,-0.0013075834624284,-3.141593263646325,-3.1415926113864443,-2.250360695160753,-1.3591287366594138,-0.0668422684386508,0.0098805210057878,0.0009999999703015,0.0009999550454182,0.001,0.0100009195408045,0.456
145,4266,-0.2013091810735238,-0.2013204934068161,0.0294135750360124,-0.0125254916505331,-0.0855935507880427,-3.141592656839844,-3.1415465691301625,-2.0094871928367057,0.5377500938577122,3.0851964471664632,0.0099992759220357,0.0009737424625917,0.001,0.001,0.0093425446000866,0.32
145,4267,0.2444908869347399,0.2444945278475889,-0.0020453811360491,0.1171546436735094,0.139131373856624,-3.141593225194739,-3.141579984957408,-2.3160646570451595,-0.1146566661894081,3.095854656429029,0.0098940282247006,0.0009978653894561,0.0009999817882345,0.001,0.0099023155146798,0.124
145,4268,-0.2748694461364785,-0.2748819032187886,0.0299989474069458,-0.0051038633898983,-0.0069472891685203,-3.14159321185387,-3.141544624535235,-2.263794706243029,-1.339796866972118,0.1385787252036112,0.0098983902956828,0.0009728438277585,0.0010000285292484,0.001,0.0103391734973295,0.308
145,4269,-0.2839615321512806,-0.2841204511589563,0.0222945503237397,0.0221679424071836,-0.1412149547897018,-3.14159286028105,-3.1414301752205382,-2.167455396662725,0.0243534314231768,3.093046298051588,0.0099613211618676,0.0008164360243829,0.0009999999652083,0.001,0.0096673583528977,0.236
145,4271,-0.2705665762046778,-0.2684454486602368,0.0295926102837597,-0.0138694233994405,-0.007530202660547,-3.1415926727344896,-3.1411573220475364,-2.0675438831317354,-0.6175780430133782,-0.6175987736055997,0.0099961330661018,-0.0926854959771998,0.001,0.001,0.0075579082405751,0.324
145,4272,0.2527220316885923,0.2548990632558333,-0.0157668292682242,0.0940209564194324,0.1155513558092979,-3.1415926715096703,-3.141158106553166,-2.228651198700441,0.1879585348301579,3.0880947346238394,0.0099963236995553,0.0005690906173656,0.0010000000051486,0.001,0.009417075559907,0.144
145,4273,-0.2428709856407207,-0.2431787067368251,0.023884143289752,-0.01434503958204,0.0973169156806516,-3.14159265405418,-3.1413847837850706,-1.933287786824488,-0.483321946706122,3.081480660552677,0.0099998959975127,-0.0092256108803905,0.001,0.001,0.0088419827095242,0.208
145,4274,-0.2312155317156042,-0.2287046493802217,0.0254041638058054,0.001000035085044,-0.0909109923050401,-3.141592654748777,-3.141177262422449,-1.9084441353582853,0.0293606790055118,3.0831258002216533,0.0099997424048603,-0.0809159925323775,0.001,0.001,0.0091117452646377,0.164
145,4275,0.245811489633097,0.2458172502906036,-0.0267066977453762,0.032406587793393,-0.1212489365121375,-3.141592761717254,-3.141558684710645,-2.1442616524501674,-0.1495996501709432,3.091883270518609,0.0099787993254784,0.0009857518460377,0.000999999996017,0.001,0.0096432175035087,0.268
145,4277,-0.2145813369332476,-0.2146834664114554,0.028216358888381,-0.0059228915078879,-0.0931129834449859,-3.1415926570268486,-3.1414665252288736,-2.0094871928367057,-0.4811448208200581,3.0852076530856145,0.0099992434795703,0.0008610755942707,0.001,0.001,0.0093000972676598,0.164
145,4278,0.2351711026739546,0.2351737123614207,-0.0097171166133341,0.1018248634532487,-0.1101430283470698,-3.141592757401296,-3.141571092258761,-2.243994752564205,0.099733100113962,3.0918730080446504,0.0099794699481608,0.0009940165634482,0.0009999997848249,0.001,0.0096711166879298,0.28
145,4279,0.2545489903188178,0.254553280173678,-0.0441996068477387,-0.0104306386556806,0.0042941950441722,-3.1415934113517503,-3.1415821891600366,-2.237537213729137,-0.5198318779321238,-0.5198470567130491,0.0098618801798632,0.0009985580411421,0.000999968439579,0.001,0.0091230230722005,0.28
145,4280,-0.2342595571434768,-0.2342785940344293,0.0314544345551326,-0.0033623980918469,-0.1044772084968209,-3.1415926933429894,-3.141531081119094,-2.1030496276096877,-0.4413807860415413,3.089831967555299,0.0099919052299373,0.0009564204006402,0.0009999999999028,0.001,0.0095738810174006,0.188
145,4281,0.2406093116202072,0.2406129891937307,-0.0296206045883076,0.0288465311655401,0.1150940591779537,-3.141592779928875,-3.141566537893359,-2.1521146524591472,-0.2721064503109267,3.092265551909323,0.0099752610802677,0.0009913375683391,0.0009999999899247,0.001,0.009680816139394,0.296
145,4283,-0.2282634598945071,-0.2288559938350315,0.0352959252099982,-0.0086921994854869,-0.091780833188965,-3.1415926597574555,-3.141336016802237,-2.029524457628796,0.5282323930814696,3.0861916616938654,0.009998675778337,0.0006967892180871,0.001,0.001,0.0093869817947466,0.328
145,4284,0.2576196280147872,0.2576251256474141,-0.0061901231143812,0.1096378710160537,0.1309121389209953,-3.14159361751048,-3.141580406841275,-2.3840454866799714,-0.3787735823477054,3.0971367438285062,0.0098262748589216,0.000998024496281,0.0010012342530886,0.001,0.0100766546315727,0.124
145,4285,-0.2560456732464802,-0.2560509957253268,0.0413167370996733,-0.0013285192454646,0.0148793426679552,-3.141593052535999,-3.1415644946238537,-2.2038038017726884,0.4220049833180317,0.4219710199698986,0.0099256050398077,0.0009899851050727,0.000999998156322,0.001,0.0112973009407002,0.196
145,4286,-0.1979967839961543,-0.2088302624163345,0.0347852312400905,-0.005910959715798,-0.0725161815363881,-3.141592653724658,-3.14071177067956,-1.8973975432572017,-0.3421536553414626,3.079672423705647,0.0099999677838951,0.0004027687749975,0.001,0.001,0.0088509846407385,0.428
145,4287,0.233211826499459,0.2333826521369834,-0.0175030279280174,0.0342462684120027,-0.0983409927683887,-3.1415926667590472,-3.141433346209085,-2.112450232586231,-0.3249923434748063,3.087617036266768,0.0099972356321681,0.0008143258168603,0.001,0.001,0.0094584925797347,0.112
145,4288,0.2524413893804053,0.2541942450407472,-0.0250116973450454,0.19590252539709,0.0835480796703946,-3.1415926815526074,-3.141192759675974,-2.032795246440445,0.343199197450986,3.0889474836139383,0.0099943279063718,0.0005874776184123,0.001,0.001,0.0095948697793096,0.264
145,4289,-0.2268498578974243,-0.2268663411130501,0.0277739247185359,-0.013731097568924,-0.0859371716978859,-3.141592669793403,-3.141535876092435,-2.121246321654638,0.8323877971049876,3.0880586806446377,0.0099966002538209,0.0009624466876929,0.001,0.001,0.0095370774381053,0.316
145,4290,0.2293884339304417,0.229390528337867,-0.0007124163164331,0.1107433724655095,-0.1115950870182002,-3.141593015212406,-3.141586784667009,-2.297582686955015,0.0,3.09481949135354,0.0099311706117693,0.0009995316766476,0.0009999984243992,0.001,0.0098437762343955,0.152
145,4291,0.2165559914925753,0.2165578585093943,-0.0343159477414838,-0.0057368165457027,0.0764963839654495,-3.1415926906174363,-3.141573800274868,-2.1030496276096877,-0.4933079373405462,3.0898031252884595,0.0099923476717705,0.0009953268982333,0.001,0.001,0.0096590336883983,0.172
145,4292,-0.2153005822789045,-0.2153022053086706,0.0430935610575766,0.0303345562069676,-0.0871569188172163,-3.141592690426882,-3.141575218828636,-2.051122476310683,-0.0778907269485071,3.0898138933405344,0.0099923790637845,0.0009959867971743,0.001,0.001,0.0096278013391914,0.228
145,4293,0.2136184656530547,0.2136201960394445,-0.0309099546751331,0.0499583254379807,0.0918779663824883,-3.141592948325606,-3.1415891971390084,-2.243994752561042,0.0236209973954122,3.094456205210929,0.009942927082816,0.0009998328595318,0.0010000058479471,0.001,0.0098470692616908,0.34
145,4294,-0.1958431608538324,-0.195844145901709,0.0203403084634787,-0.0111656736120946,0.2121070941431942,-3.14159266782598,-3.1415790654471314,-2.121246321654638,-1.3157097438111098,0.1862987033500598,0.0099969319446485,0.000997489017009,0.0010000000000138,0.001,0.0187451199552307,0.276
145,4295,0.1811229234678111,0.1811305611330335,-0.029541103745117,-0.0146102132667276,0.0615580916388741,-3.141592655287532,-3.1415551655088443,-1.98871461557519,1.70049510607154,3.0841377061775685,0.0099996095859516,0.0009815678039943,0.001,0.001,0.0093977407230088,0.256
145,4297,0.1905863767818725,0.1905874264760929,-0.0385216162960514,-0.0106566601018194,0.0006042721715076,-3.141592823217034,-3.1415909202978085,-2.223280954847698,-0.531654141376734,-0.5316718902693622,0.009966018523409,0.0009999563478625,0.001000001192435,0.001,0.0086252649322587,0.272
145,4298,0.1927739509918587,0.1927747325247526,-0.0172350563462262,0.0077265050768973,0.0036626309601249,-3.1415927769935936,-3.141589317077791,-2.1598449493429794,-1.030835089459151,-0.147280650766868,0.0099750403352066,0.0009998401710027,0.000999999987274,0.001,0.0095287335569082,0.148
145,4299,0.1937435091458196,0.1937452057736578,-0.0167707099825966,0.038941275225808,0.061626532087306,-3.1415929251363863,-3.141591085564019,-2.2439947525624544,0.401556955722004,3.094435279277773,0.0099466148857401,0.0009999641501491,0.0010000031728369,0.001,0.009884530653818,0.364
145,4301,0.1288349111135808,0.1456417504060855,-0.0181623788757958,-0.0146471504983485,0.0390319281910804,-3.141592669678226,-3.1415926794963096,-2.032795246440445,1.8215957403167709,3.0889016469968698,0.0099963769340138,0.001000001325856,0.001,0.001,0.0097289510072356,0.284
145,4303,-0.1053320360353464,-0.1598775016517977,0.0246928642474764,0.0065397239866209,-0.0060203900744564,-3.141592655118606,-3.1415926543661508,-1.9991953250116865,0.6854383971468643,3.0845671393676133,0.0099996258086276,0.0010000000703326,0.001,0.001,0.0097296223793463,0.12
145,4304,-0.128247025868345,-0.1449138388189393,0.0360522050583815,-0.0082557133251358,0.012524818811151,-3.141592673453159,-3.1415926691940337,-2.094395102393187,1.884955592153876,3.089313606989133,0.0099955542113877,0.0010000005844769,0.001,0.001,0.0098089205594381,0.244
145,4306,-0.0834729412085052,-0.0161000541956815,0.1772338163585782,-0.0667804218686387,-0.0853008368186744,-2.53990269145196,-1.871587112775693,-0.8689511595035597,0.0668423968848888,1.7710444012955948,0.0099067887719167,0.001000002260303,0.001,0.001,0.0110181971749484,0.276
145,4308,-0.0155148286832629,-0.0405549784544674,0.1953655166473361,-0.0542555077590012,0.1458842094071105,-2.932502236637431,-0.893641466697172,-0.5692410633870147,-0.2770456813848936,1.8975114209653956,0.0108408809358053,0.0036191973476058,0.0152259081331794,0.0009719899819727,0.0126335520876413,0.984
145,4309,0.1777800753426399,-0.08693338759486,0.2050898050654198,-0.1229749122405508,-0.0631174886201573,-0.5857206223345862,1.3431180803805325,1.3911087067174843,1.4351599580019188,2.299831198188607,0.0100532406276114,0.0232506574717833,0.0116742313535704,0.016984504299786,0.0194228612515997,1.42
