Numéro enregistrement,Numéro battement,Amplitude 1,Amplitude 2,Amplitude 3,Amplitude 4,Amplitude 5,Centre 1,Centre 2,Centre 3,Centre 4,Centre 5,Ecart-type 1,Ecart-type 2,Ecart-type 3,Ecart-type 4,Ecart-type 5,Période interpics
187,5683,-0.1353767409135601,0.6099839290095938,-0.3742367417709363,0.4161693480536597,-0.1429838534467906,-2.037699388718941,-1.4552036483641428,-1.0114380068494164,1.746973435118417,-2.467068868319387,0.009406547674087,0.1101492181734092,0.0012759880867453,0.1231190279460209,0.0087310512009792,0.406
187,5684,0.0563751001957853,-0.0597664306974723,0.540152325818526,-0.3208654901782722,-0.4511072734998219,-1.0890995741662108,-0.4293511620821934,-0.0103872165849178,0.3038257606676526,0.3031594538504372,0.0112930499803421,0.0009386645387657,0.0541844328866687,-0.0031528532640812,0.0764468456866261,1.196
187,5685,-0.0671528234920842,0.5677117004017824,-0.4384158661561772,0.4203254463213868,0.042840414321334,-0.3932939582981504,0.0262445873173475,0.3300899025458367,2.187087560595273,-1.033158962935364,0.0085540106938325,0.0593470391734217,0.0697557064747123,0.134960240007315,0.0070711667516033,1.204
187,5686,-0.0757588193529141,0.5152591915340392,-0.4307667918513067,0.4203179462097395,0.0484837248366093,-0.4563536785720999,-4.163336342344337e-16,0.3075583085340709,2.207649105325117,-1.1037127387045196,0.0105032531252765,0.0165703071643524,0.0677906603700162,0.1384910849998751,0.0055590817275231,1.192
187,5687,0.0927156270488764,-0.039843900287896,0.7516553113597823,-0.4819585965081315,-0.0474626716828692,-0.0794455902194379,0.9727774177343146,1.563379411253294,2.024672443208924,-1.4988451116995942,0.0113411364813662,0.001001760908197,0.1311449572401226,0.0999035919722672,0.0054206961239183,1.176
187,5688,0.0568554870283258,0.0506883705859409,0.3629219443430185,0.0572038770728836,-0.0906960901237676,-3.1416189722259555,-3.141592653589566,-0.7693696294505613,2.008722248158165,3.120276501675036,0.0058457816401982,0.001,0.0010000000106581,0.0067921676959588,0.0252782760138442,0.4
187,5689,0.0410534830360133,-0.0510931967252207,0.5162039996054033,-0.3236060796331992,-0.4854899278879727,-2.7155918761432547,0.1384430660903971,1.0329982623649747,1.6506674424188734,1.6501767060824617,0.0075094050876228,0.001,0.0010000051374876,0.0009349254706307,0.1090762361274752,0.776
187,5690,-0.0828313972865396,-0.083241072771742,0.3582925531943943,0.0132154970912698,0.1117149055091708,-3.141618451903982,-3.141592653588662,-0.768921278850649,1.3401199431266098,3.1196945528925184,0.0057413087868785,0.001,0.0010000000022759,0.0010000156100479,0.0271676003432388,0.404
187,5692,-0.0977180356584924,-0.0980542883650044,0.3687978019730755,0.0409064751287246,0.0812687255049358,-3.1416175338981,-3.1415926535872507,-0.830278058448731,1.997155726830319,3.119198536122845,0.0057804682312115,0.001,0.001000000003171,0.0008358866186085,0.025373651445133,0.428
187,5693,-0.1499657894322239,-0.0566427912623058,0.3236250243465971,-0.2614055109858255,-0.1097189218712283,-3.141613610541912,-0.0340244691724528,0.8052457704147127,1.4630521732638238,3.1189777382003063,0.0057770082799485,0.001,0.0010000000008187,0.0010011020921744,0.0276125439603005,0.692
187,5694,0.108729047204982,0.1090091516475391,0.3228404494053684,-0.0179541125054808,-0.1084670407715008,-3.1416158849125866,-3.1415926535852488,-0.7912159275707626,1.2799081181287797,3.1183874787085903,0.0059458780562568,0.001,0.0010000000000902,0.0010000008436584,0.0279897535929202,0.416
187,5696,-0.098555935263266,-0.0988867460099786,0.2967273434821581,-0.0115604739588124,0.0253148542660155,-3.141617362040723,-3.1415926535873977,-0.8445141541908043,1.3174420805402522,1.3174027637451773,0.0057974896899887,0.001,0.001000000002949,0.0009999961146773,0.0091322364286741,0.412
187,5697,0.1538791386655912,-0.0440786291208175,0.3839398668106186,-0.2248569895512243,0.1102856868324525,-3.1416129740795395,-0.0805536577843537,0.8400595740368311,1.530519495331863,3.1186451804322046,0.0058499116494217,0.001,0.0010000000010269,0.001002137766096,0.0279125054866682,0.704
187,5698,-0.0947639652641318,-0.0951343418411787,0.3123293978265644,-0.0058956481487087,0.09233016208454,-3.141618984186733,-3.141592653587681,-0.8508480103472342,1.7235126253295616,3.1198317628025265,0.0056295637684525,0.001,0.0010000000200464,0.0010043863152901,0.025740166580111,0.404
187,5699,0.0351028825232261,-0.0397213432233188,0.4145798472536753,-0.2154821162865544,-0.1379169254444736,-2.00325289564836,0.0328389475984992,0.9085442168918072,1.5653231414530688,-3.141615367343146,0.0189757322278768,0.001,0.001000000082885,0.0010155731851927,0.0056185783058573,0.748
187,5700,0.068302695844851,0.0688359672205199,0.3217629483458996,0.0049620569056371,-0.0366240591458717,-3.141620518661416,-3.1415926535892944,-0.9698876648662264,1.1174792660422084,1.6655941873329896,0.0056043031743638,0.001,0.0010000013709727,0.0009999996153562,0.0077140684851647,0.4
187,5701,-0.0776635988399908,-0.0180611650477685,0.4791067495277395,-0.2203276491889603,0.1415864289063917,-2.7060197503738515,0.1762609739637829,1.0057243808488538,1.6275715127863095,-3.1416178143515032,0.0059457525464598,0.001,0.0010000083477808,0.0173815757927565,0.0052698574468279,0.792
187,5702,-0.0864616577910762,-0.0869553292292494,0.3136977086968026,0.0057588111209021,0.0443102665148724,-3.141623501807085,-3.1415926535889787,-1.0606663299662769,1.5051360283432458,1.5049838525358863,0.0052431761365695,0.001,0.0010000413518871,0.0010009291471689,0.0070162523056371,0.404
187,5703,-0.0007694577582915,-0.0131290691060054,0.5033972881727725,-0.2619436289010773,0.006229006135528,-0.3402055945394484,0.2801420200653317,1.0205173587845258,1.6407044653900684,-0.0599908742039493,0.0102674930946952,0.001,0.0010000460261065,0.0509567786239607,0.0099402047625856,0.84
187,5704,0.0632533805505768,0.0639732400663233,0.3208776172159388,0.0128667155009195,-0.0077971267286206,-3.1416258263814885,-3.1415926535895413,-1.0665900982923688,1.1247677401921037,1.1247839523692065,0.0051857714297967,0.001,0.0010001948122219,0.0009999800102887,0.0105425893713564,0.424
187,5705,-0.0633025219183822,-0.0306275247740205,0.5009381053994978,-0.3257261797574629,0.1083906496006631,-2.373301209958351,0.3840818604702258,1.1522455807387435,1.7427605901432048,-3.1416217743389026,0.0060657891125495,0.0009999999999861,0.001000751884284,0.0711684800499744,0.0051628351403387,0.872
187,5706,-0.0729204803907473,-0.0735763518069525,0.3053592357219717,0.0201298169191346,0.0878965113168517,-3.141626522774124,-3.1415926535894445,-1.021499451705611,0.886584429847751,3.1223757748138063,0.0050795456640923,0.001,0.0010001082407982,0.0009999992922328,0.0234090640553294,0.408
187,5707,-0.0255423065227002,-0.0554652680524287,0.5337716088021616,-0.3804801151711259,-0.1207905608341102,-2.7967780478274813,-0.0191560527657914,1.111051059490937,1.685537071899572,-3.141622826271783,0.0086284028965013,0.001,0.0010009915893176,0.0844255343008655,0.0049378714251685,0.896
187,5708,-0.1206955473932997,-0.121109517937949,0.3362535477014154,0.0052099135656964,-0.0088106600962305,-3.1416280819814686,-3.1415926535878067,-1.136320746012118,0.6970707103709888,0.6970615652760805,0.0047836774208329,0.001,0.0010010150285889,0.0009999999914929,0.0098326550620791,0.42
187,5709,0.0267835108557798,-0.0522098183576275,0.5524074628559413,-0.3500081895068883,-0.0314538104701587,-2.6818382094166617,0.3639650025500374,1.111051059458006,1.6852180740538616,-0.2488205722060041,0.0083919617885866,0.000999999999882,0.0010010267017097,0.064084175843102,0.0087269034603387,0.896
187,5710,0.1456892187738451,0.145997990212679,0.3344337816796975,-0.0004385948461628,0.0255207192016447,-3.1416265379450707,-3.1415926535844827,-1.0341888859005175,1.1317538752068177,1.1316769129671949,0.0048060204519734,0.001,0.0010000957422058,0.0009999993722313,0.0081564572370251,0.416
187,5711,0.0306424988919388,-0.043091656103939,0.5734335696314229,-0.2729171921163882,-0.3482293988710789,-2.793590757793006,0.3383253626942855,1.0729747213473315,1.652099883744407,1.6523964216501423,0.0078793207594321,0.0010000000000208,0.0010004292870156,0.0076198383158189,0.081989865450546,0.872
187,5712,-0.1340303608014868,-0.1343614769776312,0.3411522999848955,0.016787013094608,0.0579227017574825,-3.1416255169889395,-3.1415926535858354,-1.0471975511461922,1.6004339461180044,1.6002057707804624,0.0049089970330135,0.001,0.0010000787503118,0.0010172361638572,0.0066176368969561,0.428
187,5713,-0.159442252478502,-0.0411143359058316,0.5938057584919906,-0.2544093854404812,-0.3342922090734797,-3.1416189609413734,0.2766182210707995,1.0471975511087508,1.6591403989479194,1.659045420884714,0.0049400479633057,0.001,0.0010001371965943,0.0093486070799956,0.0812724141946758,0.844
187,5714,-0.106849784554382,-0.1072626853310072,0.3496178399541802,0.021434254117939,0.1298132938425031,-3.141624403755424,-3.1415926535880194,-1.0805477916202482,1.5007608132978936,3.121671830567617,0.0050848195242603,0.001,0.0010000922225837,0.001004141092233,0.0265441962983528,0.428
187,5715,-0.1550326325931562,-0.0246590411678013,0.537423123761253,-0.3280995036865112,-0.1247782247335137,-3.1416175396725663,0.1944308156944817,1.033553283415717,1.6473554071699938,3.1212107247850205,0.0051492990587428,0.001,0.0010000266303992,0.0574672151283849,0.0266736342362763,0.828
187,5716,0.0640779761871743,0.064637252629138,0.3433976197931831,-0.0017694198284122,-0.035762658802929,-3.1416204259164706,-3.141592653589346,-0.8644650925985005,1.2439863527626405,1.2438619944875502,0.0056380210736559,0.001,0.0010000001625782,0.0010000014010528,0.0077781401610462,0.4
187,5717,-0.0703014939816403,-0.0337253145512067,0.4425725193334036,-0.3108016985472998,0.172887301781785,-2.7539155947393423,0.1223997137762253,0.8975979010250839,1.5095962513700871,-3.1416168130864346,0.0058779833586636,0.001,0.0010000018545998,0.0010848026452879,0.0050648442335193,0.792
187,5718,0.0710112557022596,0.0715009231803526,0.316976841707469,0.0129088705236291,-0.121635351662421,-3.1416193962470045,-3.1415926535892416,-0.8607103160519889,2.1948119717235586,3.1201548683074583,0.0057009449692846,0.001,0.0010000000511812,0.0006963561592691,0.0274007794528016,0.44
187,5719,0.1379997966982436,-0.0385598949084991,0.4617593897882568,-0.300630052154092,0.0350685012449516,-3.141615310179904,-0.0551156605892944,0.8928737015465652,1.5542616031295438,-1.3118986598225162,0.0056466096118629,0.001,0.001000000045415,0.0010153549424841,0.0174468494659085,0.728
187,5720,-0.0764888748675933,-0.0769301220995404,0.3240377325251712,-0.0094665068858358,-0.1093006862698541,-3.14161853815512,-3.141592653588936,-0.799081058230156,1.718571604372982,3.119769296017332,0.0057628249361921,0.001,0.0010000000051417,0.000994377994264,0.026950831904075,0.412
187,5721,0.1477482212329101,-0.0323436807765856,0.4676663155683377,-0.2995925247391026,-0.0465172043099117,-3.141615719325912,0.0,0.8176748002493943,1.4632075291168345,-0.4945862177707912,0.0054678353706189,0.001,0.0010000000287686,0.0010058817056294,0.0079899183673581,0.736
187,5722,0.0595583496018864,0.0600789178620514,0.3427118718005174,0.0383045383279384,0.096893346727252,-3.141617794959008,-3.1415926535892926,-0.9369662300179924,1.9069105075291644,3.1196053529233554,0.0059367476997165,0.001,0.001000000092204,0.0062173892369153,0.0262410086000722,0.388
187,5723,-0.156760652511624,-0.0339669755726024,0.4584761565105397,-0.299271385708425,0.1053293718138133,-3.1416137863154647,-0.2019595277307729,0.8078381109230897,1.481036533849761,3.1192177091932223,0.0056799779625357,0.001,0.0010000000022135,0.0010024182725752,0.0271278780184344,0.752
187,5724,-0.0967501567610872,-0.0970982675028475,0.3217151505036152,-0.0068694622607813,0.0286634799880578,-3.1416180721517826,-3.141592653587767,-0.7881734219253547,1.2544168546142482,1.2543481502659504,0.0057220145258979,0.001,0.0010000000018249,0.0009999988856552,0.0086688440863913,0.412
187,5725,0.1064034144411185,-0.0529967760523012,0.5309713486676615,-0.3100441843090796,0.1205568059597665,-1.313948944136047,0.0891231958465192,0.935793556388438,1.581936691497695,-2.0270827802882274,0.0075411050094839,0.001,0.0010000000823091,0.0010199869053113,0.0070694214131913,0.72
187,5726,0.0981920710848535,0.0985503733485457,0.3469513967593225,0.0095428804935563,-0.1150849024574021,-3.141619020223948,-3.1415926535877263,-0.7635815477475192,2.050762367400256,3.119850139185397,0.0056110272420761,0.001,0.001000000002831,0.0008528273023531,0.0272540277272939,0.408
187,5727,-0.0818653409536709,-0.0335760861216446,0.4751981527207785,-0.3046618945088293,0.1835970998420854,-2.775695435829818,0.0430355158026,0.8607103160519854,1.4847252821474417,-3.1416142350535408,0.0060682845381587,0.001,0.0010000000767858,0.0010087457151451,0.0053288649552976,0.744
187,5728,0.1640129202132817,-0.0727721698273347,0.3101109236975399,-0.0197512655428853,-0.0665566745406484,-3.141613778548865,-2.759929419823975,-0.8751579535000129,1.5259164312923723,1.5256320582807763,0.0056383980549076,0.0053621328549084,0.0010000000079103,0.0010003392091815,0.0075421442535566,0.424
187,5729,-0.0780843893281485,-0.0558487964644331,0.4041221217941894,-0.2930950614417104,0.1408760140390111,-2.715135886644493,-0.4936788455641103,0.7853981633974483,1.4585965874452858,-3.141614289744794,0.0064658950483697,0.001,0.0010000000011171,0.0010015746720177,0.0057544711882487,0.696
187,5730,0.0812223641337793,0.0816277473006753,0.3302042222386152,-0.0120318009608386,0.0899107897161421,-3.141617865016981,-3.141592653588181,-0.7659713537021049,1.3876292639307697,3.1194436667812937,0.0058143647233385,0.001,0.00100000000102,0.001000024269621,0.0258588897134284,0.424
187,5731,0.0301888401290395,-0.0286792231864531,0.4796149624265483,-0.2872715633570593,-0.1202957383690502,-2.0116051532514376,0.0,0.8588526678878576,1.5368942407322688,-3.141614540781214,0.0188528217781838,0.001,0.0010000000056274,0.0010052074512965,0.0059169077001636,0.708
187,5732,-0.0824157491588779,-0.0828421282628462,0.3296079076268501,-0.0107542276181473,-0.0456211374280636,-3.1416192059957986,-3.14159265358845,-0.7799816243395342,1.1699724365088768,1.1697692630235064,0.0056623665256644,0.001,0.0010000000058911,0.0010000008233344,0.0076172416206038,0.4
187,5733,0.0550085978387175,-0.0446482817343959,0.5930178720546567,-0.2968347161492934,-0.1339760063047997,-1.401114902327102,0.0636809321673603,0.8490790955647827,1.485888396618534,-3.141617060864084,0.0189838333791544,0.001,0.00100000014546,0.0010127748081349,0.0054412822683255,0.76
187,5734,-0.0926080053927634,-0.0930318522321947,0.3412499288348292,-0.0100289869851653,-0.0453725961213444,-3.1416215054145087,-3.1415926535885967,-0.9706581952944288,1.262899372359796,1.2627087267088806,0.0053885211950166,0.001,0.0010000022689766,0.0010000152681617,0.0073108656434392,0.424
187,5735,0.0264780314228835,-0.0312561123136095,0.5875659731094051,-0.2567069442503695,0.1340912216263701,-2.756905377625005,0.1068568929792448,1.0258261725992583,1.667172615415755,-3.141616757065443,0.009544168234139,0.001,0.0010000043853323,0.0296682800385434,0.0054805039574096,0.78
187,5736,0.1028847967679546,0.1032515228394092,0.3320799792255909,0.0201059755481374,-0.0084718558280544,-3.14162060773964,-3.1415926535878107,-0.8490790955647951,1.358526553004734,1.3585608519913477,0.0054290549859306,0.001,0.0010000000815458,0.0009999058318544,0.0112776917627798,0.4
187,5737,0.0116545653881741,-0.0299404196868437,0.4332948902689311,-0.2320294927057615,0.1809609546781125,-2.730934516874089,0.082133141270321,0.9239978392903752,1.5399961830172513,-3.141616136039141,0.011979398822599,0.001,0.001000002306412,0.0010816345238977,0.0050737760810795,0.784
187,5738,0.0811460522484327,0.0815978821315241,0.3181023954881249,-0.0113653593224604,-0.0512456319001823,-3.1416201567226016,-3.141592653588904,-0.9904003958770564,1.0542971956115572,1.757008762067998,0.0055715429418232,0.001,0.0010000013296169,0.0009999998266247,0.0071483504904792,0.412
187,5739,0.1051984287544757,-0.0535601988881675,0.4282864501823483,-0.2277211097888799,-0.1384698226691347,-2.4163410617288497,0.0219691793957332,0.9446747140164778,1.6257191538589673,-3.141615206698496,0.0065916365662413,0.001,0.0010000001624603,0.0010528053515774,0.0056368797952993,0.768
187,5740,-0.1059489699884092,-0.1063304426440953,0.3254420353253323,-0.0120547491278802,-0.0501824808118424,-3.141622252277245,-3.1415926535878387,-0.8680716542812861,1.3847809720628823,1.384574151224866,0.0052648129563082,0.001,0.0010000004215169,0.0010001839692842,0.0071004401605953,0.404
187,5741,-0.1137115827490407,-0.0261435579646337,0.4906099271270813,-0.236797528596889,-0.0260084167340922,-3.141618874739361,0.259207314652623,1.0471975511878897,1.669186477713304,-0.34235146619627,0.005419988890119,0.001,0.0010000189303087,0.0404131823974533,0.0115755772290182,0.808
187,5742,0.0357940857661326,0.0561012827759272,0.3297589766547416,0.0196888652867055,0.0644048779496321,-3.141621663517473,-3.1415926535897487,-0.9861957520940278,1.677549363654427,1.6772967358399322,0.0057387932986371,0.001,0.0010000086817081,0.0010363086785359,0.0067497115460138,0.404
187,5743,-0.1113651335941361,-0.0458277308350187,0.4946786193808302,-0.2485465734226396,-0.3486990504451362,-3.1416206624499257,0.2601318757749511,1.0605376473336574,1.660842184950875,1.6605924160759964,0.0052604856489971,0.001,0.0010000919940026,0.0008867890339676,0.087614160919573,0.836
187,5744,-0.0580762173065251,-0.0587870208346451,0.3062035606365852,-0.0150723183589811,0.0928784726652038,-3.141623958679112,-3.1415926535895804,-1.033941885965178,1.4316118442632737,3.121768831979304,0.005364054817204,0.001,0.0010000448034248,0.0009987910859269,0.0242398599728074,0.42
187,5745,-0.0704221296177562,-0.00361548679951,0.7497417469811296,-0.3238289398992182,-0.103385120810039,-2.709848619142248,1.0072281790135218,1.9189419646878016,2.6136639729199667,-3.141612306629189,0.0070869270451041,0.0010000000000451,0.1691837027425642,0.0881232359992806,0.006440878521544,0.844
