Numéro enregistrement,Numéro battement,Amplitude 1,Amplitude 2,Amplitude 3,Amplitude 4,Amplitude 5,Centre 1,Centre 2,Centre 3,Centre 4,Centre 5,Ecart-type 1,Ecart-type 2,Ecart-type 3,Ecart-type 4,Ecart-type 5,Période interpics
240,7506,-0.0732760784220958,0.1452114335673166,0.0450971528745859,0.061704732540336,0.0606168855696373,-3.141592654527805,-3.141592653589793,-1.5575963576621663,-0.4487989505128276,-0.4488257518552556,0.0099997492639708,0.001,0.001,0.001,0.0058731682712515,0.438
240,7507,-0.1303107610116836,-0.0497764126108078,0.3241204270984142,-0.1795139008406306,-0.1914514882587167,-2.0563372707773047,-0.5650346499262215,0.6554401939144174,2.011523353737364,-3.1415930328171204,0.0144454665650492,0.001,0.001,0.0009999999940047,0.0099132979164456,0.356
240,7511,-0.1315503458043646,-0.0643235716767102,0.0081621860070887,-0.0180720638416862,-0.0870946740182362,-3.141592663985935,-3.1415926489212094,-1.76879586378585,-1.0295975923529572,-1.0292127562721318,0.0099973663851112,0.0009999999995836,0.001,0.001,0.0178497765597304,0.276
240,7513,-0.1224058862837861,-0.0098335491886113,0.3372024331996165,-0.1470319130197935,-0.1421930054230104,-2.190907516837066,-1.715995987254929,-0.290399320920065,1.2935969750075618,-3.1415926621462487,0.0161975572004518,0.001,0.001,0.001,0.0099976931912836,0.276
240,7514,0.2482212085151933,0.2453768930159536,-0.0484165069879949,-0.0305294686275885,-0.1884177273638103,-3.141592656571594,-3.1412573632540366,-1.6564761264382546,-0.3998390650023373,-0.399794435871657,0.0099993597612004,-0.0517464343122521,0.001,0.001,0.0450558211256804,0.32
240,7515,0.024887160169773,0.1606082464791826,0.1642899961067732,0.0336099882523856,-0.1073483180485785,-3.1415926549890245,-0.3959990739819066,0.343199197450986,2.56079410387882,3.088772232533385,0.009999625232068,0.001,0.001,0.000957929167807,0.0100448490159246,0.12
240,7516,-0.0735981350098961,-0.0738203005934649,-0.1021408409472841,-0.0420352761124268,-0.1168242968287198,-3.1416062818584964,-3.1415926535831944,-2.5675379835673824,-2.022669192066856,1.9652317722688932,0.0075660043117289,0.001,0.0097759103393064,0.0010216621915891,0.0350480698408064,0.276
240,7517,0.0803827639276173,-0.0817869490287637,0.2618598510371656,-0.2286596419447208,-0.1259709409801813,-2.02108495068812,0.0487068628463537,0.7306029426953007,1.436852453932295,-0.1708455214041385,0.007810313757382,0.001,0.001,0.0010000563185748,0.0336846408408694,0.6
240,7518,0.0060775095734095,0.1940169601928386,-0.0183622527109565,-0.0138353489485328,0.0085868312986224,-2.5960063065862093,-0.6247985389480668,0.3607991562946253,0.6775984154799226,2.631206242895386,0.0136891873394575,0.0010000029155948,0.0010000000028727,0.0010000004900628,0.0140700851895204,0.432
240,7519,0.0030915815963245,-0.1224086565844696,0.4398224075202715,-0.2564122587504814,0.2759548852093967,-3.037909817022741,-0.8708560407791808,-0.5493957225864363,-0.2384592583078605,1.897695053088513,0.0102368829683692,0.0296659206985943,0.0547675017777267,0.0329340156087199,0.0694823281822518,0.996
240,7520,0.4042165332186134,-0.0538449099431676,0.3696570838983904,-0.1866905920325088,-0.0612135801502925,-2.3769758118252824,0.7128517802764983,0.784151004071997,0.8470881017996047,2.305292446818887,0.0188884910361686,0.002467867620522,0.0196406611151698,0.0086368186388009,0.0061744153049239,1.428
240,7521,0.3604915772825613,-0.0842026877761962,0.3533258722662655,-0.2036487842952368,-0.0459361578307992,-2.280470787789741,0.8197604958139109,0.8852528396446919,0.9480524701202836,2.332857193216782,0.0183986859206672,0.0026569300385418,0.0170262474706435,0.013923375489672,0.0035621537770213,10.172
240,7522,0.1093909779603758,-0.0421880117990626,0.4307422809845351,-0.2560684292510085,0.2956213983631685,-2.9556806261626933,-0.2879931051253709,0.0185807509450155,0.2879600363791683,2.035446243607084,0.0284844603097929,0.0032275332951238,0.0601370668396145,0.0488148512625953,0.0619976262842379,1.352
240,7523,0.0566802930406526,-0.0379276386018699,0.4606356585263337,-0.1932830402563158,0.3193893425599874,-1.258193682807753,-0.7052695459644955,-0.472252879127428,-0.2400430182999035,1.3143215500179677,0.0190759083991864,0.0098129866220275,0.054949290597221,0.0441834881529924,0.0855286318653362,1.352
240,7524,0.005608302441169,-0.0909940554673355,0.403643534491151,-0.2457744046230478,0.2141630270207918,-2.317880794810564,-1.4744699414699334,-1.2059301743671276,-0.9188627447937694,1.0922317463957445,0.0099079990275068,0.0032118802130363,0.0606714410417664,0.0464559028247106,0.0661248281811498,1.788
240,7525,-0.0495179897302618,-0.0892871094658742,0.2813232488951318,-0.2277301838113326,-0.334657106308765,-2.950013028843347,0.306496844252663,0.9003344799842393,1.4558598989903222,1.4552499009807964,0.0059880485264386,0.0010000000000451,0.0010000159152309,0.0010378142039694,0.0859259702213244,0.836
240,7526,-0.0216736779220698,0.2134934509456779,0.2103896388164862,0.0308482464201153,-0.0052322576078802,-3.1416181176120004,-1.277145957209163,-0.960190039463544,0.1025445673278566,2.433114914698502,0.0071131014583069,0.0010105416971644,0.001000085242837,0.001,0.0121847828635887,0.476
240,7527,-0.1442453387270451,-0.0677660059260686,0.2965381344730767,-0.2109237875727767,-0.3438191087964429,-2.6243042133749963,0.4214331608474109,0.9961147437641624,1.5707862568988795,1.5712502516191975,0.0374166027773199,0.0010000000004024,0.0010000851663913,0.000171072876121,0.0801328461381011,0.872
240,7528,0.1455006203779016,0.2009744913943306,0.1983436593452356,-0.0103403937972342,-0.1110722332993367,-1.802665068592542,-1.0967690321275207,-0.8179294482677676,0.2044823620679746,2.00762064222891,0.0123103716052831,0.0010007411793158,0.0010000086182172,0.001,0.0296446366826675,0.44
240,7529,-0.0450007759741354,-0.0677507798263211,0.3092929789193266,-0.1836049273604713,-0.0281789844701693,-2.936486541427169,0.5873007037868054,1.2957904015887285,1.8368282560151663,2.6008887594070003,0.0060498669182295,0.0010000000427435,0.0010219454020233,-2.882922857483457e-05,0.0078931857394989,0.912
240,7530,0.2309437226367275,0.1724332237951226,-0.0456225752396313,-0.0544063911669635,-0.1094292086599884,-1.6155378407151724,-1.1616612862208104,-0.39183978376495,-0.1443620256504484,1.2031070486842614,0.0605636655176965,0.0441873153194963,0.001000148985723,0.0010000107941294,0.0264158022408142,0.436
240,7531,-0.0831600823648391,-0.0947564990361778,0.3779499350851545,-0.2023525459630742,0.2515822634640863,-3.141691043166606,-1.9530305523769784,-1.642400160061357,-1.3109006061384416,0.776212775122398,0.0042677037926309,0.0033687049414619,0.0714656172236806,0.0248163290628909,0.0677126201372555,1.392
240,7532,0.1361621510495091,-0.011301225225924,0.4523407072715131,-0.1383621419289319,0.3640668582803109,-2.1015555067080496,-0.900643745213511,-0.5466772166294219,-0.235887264323436,1.9089275102180496,0.0368934928313626,0.0024999932980742,0.0681055677267523,0.0010819359766285,0.1073852540523158,0.956
240,7533,-0.070483300238868,-0.1139645401671544,0.3891371618611669,-0.2761229928354669,-0.0483814164300928,-2.8520751574881875,1.253926430028536,1.7085933756120573,2.107671437079032,2.8383715256436366,0.0072725113722426,0.0278111379344466,0.0741496117138859,0.0684966177355574,0.0087700402817973,1.388
240,7534,0.0551612444845682,0.1686966415150954,0.1818875480860385,-0.0091184599933778,0.0707420343801371,-2.597435244354263,-1.175903379248152,-0.912641441034367,0.0351015938948583,2.614951972649748,0.0059845405500535,0.0010094075342724,0.0010002573659965,0.0010000000000242,0.0051053204793119,0.436
240,7535,-0.0829864230540669,-0.096553472486998,0.279940140734815,-0.2160906304974511,-0.3246131274541762,-0.7513244245464724,0.5805116859883676,1.1268755936966626,1.6223617795797407,1.6216872241103564,0.0274586956405257,0.0010000023902754,0.0010177714888187,0.0004342934340127,0.0849875661898956,0.996
240,7536,-0.017398315366609,0.2678002809368637,0.2006242031222485,0.0152660577516961,-0.0016653161462981,-3.1416205841768905,-1.4465588425644202,-1.1556266938816866,-0.1284029694927714,1.2241293121131662,0.0071582474029424,0.0548761139589616,0.0010167764086095,0.0009999999998542,0.0110443639375176,0.476
240,7537,0.0552112960748605,-0.0615287789237073,0.3450474539126778,-0.1945726562012719,-0.2260873422769646,-2.936118783061455,0.8303392026705738,1.2925044611989132,1.8062017708653124,1.8061426541018035,0.0049994385995168,0.0010000584919404,0.0376545398726714,0.0004946085886266,0.0529198908888859,0.992
240,7538,0.0116993252893391,0.2411831735384301,0.2069193482427046,-0.0066994892002888,0.0853088062019808,-2.7529498653348283,-1.5222673024724422,-1.1982582844323897,-0.0809688828244792,2.6880235689003533,0.0137094812529551,0.0573081041692545,0.0044581378148511,0.0010000000005377,0.0045584423725192,0.476
240,7539,0.0551564050171677,-0.0728314703045005,0.3595214865781703,-0.1792455758325129,-0.2844248491464506,-2.919600957815919,0.9219891480461136,1.5024739798421791,1.9974194975799933,1.9972652612647888,0.0049869162057386,0.0010002706680365,0.078351878246687,-0.0088601283214441,0.0740669229963753,1.076
240,7541,-0.0636334692155213,-0.0648764409181687,-0.0540751960640272,-0.0182604688989211,-0.1430356856669765,-3.1415568427437965,-3.14159265358701,-2.5938462878321005,-2.017536551848876,1.383459741232114,0.0241622613419253,0.001,0.0063465344075146,0.0010068009870859,0.0360231163424842,0.436
240,7542,-9.43504049888324e-05,-2.7754708253890925e-13,-1.3876920446076468e-13,1.3878655169552445e-13,-9.435040512761028e-05,-2.7755575615628914e-16,-4.163336342344337e-16,-1.3877787807814454e-16,-2.7755575615628914e-16,1.3877787807814454e-16,0.0100237211584541,0.001,0.001,0.001,0.0100237211584402,0.436
240,7543,0.0018590527637183,-0.0383432685301299,0.3204703584679106,-0.1775926091435794,-0.0998773967460803,-3.141592653521914,-1.798018436960196,-0.7310624414013982,0.4939611090549989,2.074383172325194,0.010000002402585,0.0009999999998404,0.001,0.001,0.0125615547382673,0.2
240,7547,-0.071096335376216,-0.0534464767415887,0.3198709234826533,-0.2102898360745549,-0.0835963351968581,-2.360860041291624,-1.691626813471427,-0.5762684749188378,0.5019112523486648,-2.3608813855518265,0.0164073705471345,0.0010000000000763,0.001,0.001,0.0181706740493944,0.28
240,7548,0.0381534316601224,-0.119301984694579,0.0515991782114053,0.0412250846600662,0.1402726687133137,-3.141593973687101,-3.1415926535897927,-2.43561710265462,-1.7649396930279702,0.9890683405628058,0.0097547416464363,0.001,0.0007735726229436,0.0010000000161398,0.009825964388661,0.396
240,7550,-0.1357355989765231,0.1842644013819824,-0.008708728257573,0.0123909770576269,0.0084076919155966,-3.1415926535829546,-3.141592653589793,-1.947787445225672,-1.1938052083641213,-0.1256559444778846,0.0100000022656667,0.001,0.001,0.001,0.0103544873018734,0.2
240,7552,-0.087400338963655,-0.02259953185557,0.358819491347045,-0.1391209816389159,-0.1051705139082971,-2.237397926226395,-0.9718595978731016,0.4294263339439288,1.695103949778665,-3.1415928687679617,0.0132457777958613,0.001,0.001,0.001,0.0099507705058035,0.316
240,7553,0.309278678274802,0.3094247634455678,-0.0688528714168087,-0.0505803194617599,-0.0634568018770849,-3.141592687813541,-3.141387874492619,-1.9271954933786128,-0.5015988270437486,-0.5019364288416502,0.0099933890984862,-0.003782447070209,0.001,0.001,0.0281036879287749,0.32
240,7554,0.0421780241743392,-0.1448767424375656,0.1677986385875523,0.0213191288041699,0.0637029695465598,-3.1415927228124554,-3.141592653589793,-0.4746291059380261,2.1471316697197755,3.096395455046969,0.0099844412515367,0.001,0.001,0.0009999996324884,0.0100020860178237,0.156
240,7555,0.2857660712614069,0.2858000284164115,-0.0345964999382548,0.002552629177578,0.0492143942554597,-3.1415998593712584,-3.141590852263652,-2.1749487585444944,-1.6172695909012544,-0.91067503489148,0.0088259051245803,0.0009999553181306,0.0010011867139909,0.001,0.0124369634870693,0.32
240,7556,-0.0475923973431299,-0.1012973548982362,-0.0112638317081406,-0.0182222012990267,0.0132720384453877,-3.1415934293889998,-3.1415926535892718,-2.298212074634236,-1.5391695551144622,-0.1898356508304267,0.0098442249309268,0.001,0.0010005650550374,0.001,0.0083660787244085,0.356
240,7557,0.3566055125242583,-0.0419794229779547,0.3505753709220574,-0.1637806392452643,-0.309131661879008,-3.1415928096537256,-1.7778004938918983,-0.1217671571158831,1.242025002582011,1.2417509824312307,0.0099617399682321,0.001,0.001,0.001,0.0934247705569085,0.24
240,7558,-0.1371772334571913,-0.0195300570732852,-0.0410344612601692,-0.0484169850104686,-0.0916574872035349,-3.141592645752852,-3.14159265345206,-1.9271954933786128,-1.18799722194572,0.078845313239555,0.0100021076644179,0.001,0.001,0.001,0.0270233673028596,0.356
240,7559,0.0241835781895267,0.1179598726230196,0.1333495622300911,-0.0254184024703875,-0.1063808272318691,-3.141592654945077,-1.4519966046003243,-0.5543987035746696,2.0855951229713847,3.088774317271372,0.0099996370160931,0.001,0.001,0.001,0.010044480244321,0.12
240,7560,0.0326411701442267,-0.1379005480699104,0.0048393802225031,-0.0136508340448262,-0.1550269028240716,-3.141592630943969,-3.1415926535897927,-2.5571103783790305,-1.972627945277312,-0.3165702910388528,0.0100053949908498,0.001,0.0009729018441349,0.0010000000000069,0.0376576266431509,0.276
240,7561,0.2427223722927185,0.242733558486079,-0.047902443110224,-0.0232830595595867,-0.023354649244475,-3.1415946497013203,-3.1415896411362008,-2.424652242116335,-1.0753102371347611,-0.5692158679111596,0.009647687520414,0.000999873358733,0.0051190587378933,0.001,0.0118049378451012,0.24
