Numéro enregistrement,Numéro battement,Amplitude 1,Amplitude 2,Amplitude 3,Amplitude 4,Amplitude 5,Centre 1,Centre 2,Centre 3,Centre 4,Centre 5,Ecart-type 1,Ecart-type 2,Ecart-type 3,Ecart-type 4,Ecart-type 5,Période interpics
242,7614,0.2039578902999065,-0.0091980402980386,0.8612384699988987,-0.1633574140202459,0.5597627330293404,-2.781821451263572,-1.20830581940234,-0.8683021459204754,-0.581390927399924,1.6815304444464614,0.0386384329902245,0.0007464180576528,0.083021651538311,0.0306058990296513,0.144293467829713,0.448
242,7615,0.0966239881563186,-0.0156387890785344,0.9165256153007112,-0.1200033990775787,0.6046815816095337,-2.9740206816665147,-0.2594712829183015,-0.0117271309236399,0.2196641418584085,1.9202072833300023,0.0219522286076353,0.0008495300236531,0.0637030442062887,0.0242778968060898,0.1581556352356943,1.576
242,7616,-0.0963058267244818,-0.1308471010862789,0.6908417458178725,-0.2817416735385221,0.5015935878979816,-0.6219547874500144,-0.2689602123844319,0.0043142444888292,0.2362927963522169,1.9863516434879087,0.0187379761146699,0.0156894203465891,0.0585550571625533,0.0660406311740737,0.1237457488955412,1.574
242,7617,0.1946538925879964,-0.147135344962949,0.5687604307142875,-0.4309928240896454,-0.1611033417602203,-3.141725792343,1.3486988509343805,1.7000143558955585,2.0882593316410576,0.959398307199654,0.0149244565666038,0.0033935789018984,0.0903353898646851,0.1212402176151418,0.0412310170693837,1.556
242,7618,0.2052442668701347,0.5369908678353851,0.4234108448493944,-0.0273217644681654,0.0085052937863086,-2.530242179134085,-1.2402502302682217,-0.9755471801043476,0.2480204726518277,2.4967420022650897,0.0474013461970774,0.081771967025342,0.001008417374471,0.0009999999875724,0.0105861544277798,0.45
242,7619,0.072362212017119,-0.1227787129133189,0.7870742015734947,-0.3116716015341004,0.5666070677257806,-3.1320692826598364,-0.8707212866640708,-0.5930191762971141,-0.3066480230773082,1.7145891488719394,0.0141663333485222,0.0032935225773359,0.0655390692344885,0.0567578087047942,0.1358031641852772,1.068
242,7620,-0.0066356048970362,-0.0694282113453343,0.8679076605466693,-0.1989626578678257,0.5935315476519796,-2.9779680568992526,-0.2040609970808264,0.0490879535434217,0.2859196741725515,1.9962151544059843,0.0100454494259588,0.0028731279812847,0.0578751774621262,0.0300845678882559,0.1538639840215387,1.556
242,7621,0.0636238396012646,-0.1315537085712749,0.8062175498501947,-0.3299202454738281,0.0843088180198418,0.1382799989680901,1.244070934930105,1.6103661637665456,1.9857004018472235,2.651498745922078,0.0208054656970841,0.0007337866207841,0.0776605058654009,0.0830866702534624,0.0255874586306309,1.516
242,7622,-0.0374402764576803,0.1182874607151476,0.4796835680525971,-0.0324669939153731,0.0742105647349978,-2.9809014372205564,-2.4185474582111834,-1.2130529963686465,-0.0723128743793043,1.6632240415583015,0.0158571255220559,0.0276459476290503,0.0815514657147913,0.0010000000029073,0.0257296880902782,0.484
242,7623,-0.1108183053458333,-0.1031600925531053,0.7812652454281993,-0.2922573964587676,0.1070533001077837,-2.539917106921312,0.6568065244561496,1.1789602977792892,1.6214619957857654,2.6509414226729926,0.0059205763536557,0.0010001118174164,0.1077168157743194,0.0602186150215508,0.0345642838122249,1.08
242,7624,-0.0406282696454754,0.4284548838742555,0.3288072656305469,-0.0650255176468931,-0.0449083916497397,-2.588162851349836,-1.3514661741175362,-1.1394367573269688,-0.227887550001323,2.3114378911626368,0.019701511471942,0.0882910499722587,0.0012198848841339,0.0010000000443395,0.0170096480792036,0.508
242,7625,0.1589019639144596,-0.082150070693517,0.6986204173986776,-0.3938045531426036,-0.0680005953820684,-0.824953655614116,0.6916503719921829,1.2247868453392097,1.7076017375964867,2.625052729251121,0.0446791403465149,0.0010000261945708,0.0953076623520882,0.0889768227046024,0.008233228604913,1.036
242,7626,0.1882396844566034,0.1885882324892616,0.4314238570836151,-0.0226720701459829,0.0055934086415767,-3.1416430946501626,-3.141592653581973,-1.0698396358847289,0.3905763839598207,1.3415545817809205,0.0040442762847506,0.001,0.0010150763588765,0.0009999999675953,0.0105292872593403,0.472
242,7627,-0.1174805975653952,-0.0880898473180626,0.5495850129104368,-0.2628053936551833,0.1320663829895374,-2.524957386563281,0.5249876317659271,1.0583083446245214,1.5408590046474235,2.624933321673755,0.0365417814264632,0.0010000023798532,0.0010306186279663,0.0558775704954166,0.0396031717317083,1.0
242,7628,0.0149315188951945,0.4117429839160489,0.3449078911956834,-0.0379513628244639,0.1853015030516739,-2.6097093289564475,-1.3134528917834465,-1.0970640355485382,-0.1828440168755967,2.609656566219277,0.0102433705864334,0.0716610390265733,0.0010328590918224,0.0010000000044061,0.0489526996394801,0.508
242,7629,-0.0613705120450782,-0.0743703910921114,0.7708030638514873,-0.1981037594239438,0.5856041975172155,-1.422638870621924,-0.9879224463867275,-0.6513589636849819,-0.3660322170725041,1.778470771340657,0.0139777133062981,0.00067390771443,0.0742769243215053,0.0317666444156126,0.1563333886616082,1.014
242,7630,-0.1070217319821234,-0.1070826684715134,0.8123697262554542,-0.2954822465294387,0.4552498551702383,-3.013916775561984,-0.3153572286585067,-0.0681822010947937,0.155119180995748,1.8243251005665897,0.0264809756080866,0.0007200154030589,0.0550617698914677,0.0477708382076403,0.0934504138310793,1.53
242,7631,0.205404691259942,-0.0184728162031194,0.8935840975910531,-0.1628692052883047,-0.1687672260085955,-2.939448904963077,1.3055202272518176,1.6762753448454015,2.021170081281001,2.021013222317752,0.0397240176746066,0.0007729351578629,0.0930599448317113,0.0001855899390616,0.049393074981478,1.618
242,7632,-0.071249266392261,0.0506406451460731,0.4804449121505348,-0.0787344005280039,0.1472729259254908,-2.9576924551428827,-2.436556110705815,-1.2869489829265082,-0.1838981065514661,2.0536187124071885,0.0168040214190462,0.0063640749470493,0.083394726890575,0.0010000003970573,0.0358004561920696,0.49
242,7633,0.1465418836215295,-0.1349699588371758,0.8051706190017976,-0.4423833405708888,-0.0143251118128988,-0.541585541823801,0.8356945937241906,1.3153864248111076,1.76394661400531,2.38329074862902,0.0397181946993068,0.0010026033286047,0.0874597610102657,0.0920402180496553,0.0134855855720501,1.148
242,7634,0.0172434219646564,-0.0888169246412088,0.4143426128629997,-0.0537087169711882,-0.0348509349351123,-3.1415320462176517,-2.96283761641711,-1.176941227546258,-0.040589052371961,2.524658756937517,0.0145361730212009,0.0031658279414013,0.0443835267947963,0.0010000000022482,0.0159310882213544,0.476
242,7635,-0.252744215033813,-0.1172120031609266,0.7699302128804906,-0.3160354674194278,-0.4082497276494113,-3.141625327962053,0.72871994527517,1.198258000024948,1.684152762749168,1.6844189513616994,0.0037861098333602,0.0010001598698499,0.0962510051153779,0.0004518755139782,0.0981168166227547,1.072
242,7636,-0.0447848626215185,0.0569673300639392,0.3928790342733473,-0.0517708976367633,-0.0447875930491056,-2.908860580495284,-2.759142636043559,-1.1469303019112953,0.0166221833523272,1.279943652961166,0.0052374691052497,0.0041464148763857,0.0011184362950906,0.0009999999998404,0.0170805949313745,0.476
242,7637,0.2012518827594845,-0.1433636881797184,0.6652546548717174,-0.4313449206705835,-0.0479447822173352,-3.141651622213586,0.7083166459925426,1.2081276845671851,1.6911197367415245,2.291647553838123,0.0093453808733861,0.0010000580158074,0.0794701789880992,0.0927775651713415,0.0171621472582453,1.036
242,7638,0.0239203294395691,0.1596113775667999,0.4553716261946482,-0.0284668803007632,-0.0607713121728205,-2.9792324691897085,-2.44371875188835,-1.1607874492254495,-0.040589052371961,2.5082933921924826,0.0074616719173106,0.038414041896805,0.0416725391520479,0.0010000000007008,0.0048565395330307,0.476
242,7639,0.0462328173638934,-0.1200875229230143,0.8424982701024234,-0.3239788742912325,0.4401624756139609,-2.982429178824183,-0.9036352499330702,-0.6042770414174857,-0.3329493203122741,1.6060117258093012,0.0121247492258471,-0.0007035526936604,0.0660975949419777,0.0570805028728545,0.0800988572379657,1.072
242,7640,0.2007010742519504,0.1787629229805002,0.8730258655142344,-0.1030331987550785,0.6419771483826916,-2.882622477706664,-0.4682228687072686,-0.0643516825973586,0.1637443757528628,1.7935784747573391,0.0324896535652302,0.0283216709964496,0.06982289534757,0.000738159884001,0.1661425099701126,1.614
242,7641,-0.0089268135031309,-0.2134753250233221,0.7647233950190588,-0.3944399750552494,-0.1035247063859226,-3.141564238315929,1.4111626022981183,1.7712162353317942,2.1073968990625818,2.537284398183197,0.0109731629551229,0.0459710868602495,0.0687940987120797,0.08073892656684,0.0062656260924301,1.686
242,7642,0.0876979151271365,0.1784140475357885,0.4891337403375108,-0.0312699457093108,-6.376774319958862e-05,-2.802509016901728,-2.5370505766971685,-1.386477494733802,-0.0737463064223555,2.2713924596399133,0.0252207322415623,0.043076978459149,0.0973406971830269,0.0009999998560942,0.011242724745519,0.476
242,7643,-0.0308381084971332,-0.1163513961909804,0.7733888866022499,-0.4155938953816795,-0.0345071376757568,-2.846612917634044,0.9439527581911672,1.3724661001770462,1.814142461666428,2.418892999060521,0.0144624503849829,0.000981942056141,0.0935368874998,0.0910721114964094,0.0145555125245746,1.228
242,7644,0.1007049309699027,-0.0382442692936401,0.5431044233523188,-0.0025834344886544,0.1829668707100844,-3.1413201227239,-2.9516726946825926,-1.242233108843474,-0.1186999743169945,2.540181297922352,0.0281082706837212,-4.094501969706746e-07,0.0896639663356531,0.0010000000011102,0.0428636917330399,0.476
242,7645,-0.0613284190894323,-0.1010078564360511,0.7954486843958525,-0.2659766373012926,0.6038886950592602,-2.9979395206126918,-0.7846756329780481,-0.5066206512486644,-0.2107157636252563,1.8102755430664583,0.0099628166602247,0.0032811344814674,0.0694918816256305,0.0496243661987004,0.1449887440298194,1.108
242,7646,-0.0453083258729345,-0.0761696709760487,0.8239157500365031,-0.223427104156949,0.6102614820905368,-3.016612504500894,-0.2499946725140657,0.0081794385703543,0.2580413967626952,2.0082237805219174,0.0087529453578452,0.0007982659313625,0.0613427064301693,0.0368080833797458,0.1407523795942011,1.516
242,7647,-0.062406574318639,-0.1389360976427736,0.7800238541916038,-0.3304642945452766,0.4787006552231729,-3.0177672568434577,-0.2837778854314398,-0.0367779121695161,0.2020113067683893,1.9528028474860628,0.0086112466036913,0.0028504327067986,0.0575520863319638,0.0531462364250908,0.0969429722846343,1.504
242,7648,0.1736907480063504,-0.1389454758807939,0.6882313623056845,-0.3675953897311757,-0.098018671854502,-3.141680595150663,1.337431301424597,1.7040526628889374,2.09455426988093,0.9456859117107762,0.003011692673267,-0.0001244630515952,0.0944504179345291,0.1085511794320708,0.0043290551449454,1.542
242,7649,0.2592420864694281,0.5123811337931101,0.4293279817654141,0.0119480548195649,-0.0715165359834964,-2.2185854958672557,-1.2287616652155018,-0.997723631401598,0.3380716503862958,2.498284744789744,0.061834167922045,0.0764684314106246,0.0010125167879116,0.0010000000267563,0.0048896078010782,0.45
242,7650,0.1474934944410766,-0.1055026953847532,0.7398763234481432,-0.3517948511518958,-0.4638120577219128,-2.7030218467457345,0.7387207530307717,1.2417037371943995,1.712245745089437,1.7125783898841431,0.0379208570848725,0.0010001516836239,0.0909660070910607,0.0005134978980244,0.1003587438855317,1.072
242,7651,-0.0568820516458498,0.1688615584720309,0.4303021364062681,0.0183188784542772,0.0882288996657606,-2.956764807549106,-2.436160937791412,-1.108797329251424,0.1343996857150705,0.134602514352875,0.004833462032169,0.0405103227112947,0.0010388143770388,0.0010000000003053,0.0183125829057131,0.476
