Numéro enregistrement,Numéro battement,Amplitude 1,Amplitude 2,Amplitude 3,Amplitude 4,Amplitude 5,Centre 1,Centre 2,Centre 3,Centre 4,Centre 5,Ecart-type 1,Ecart-type 2,Ecart-type 3,Ecart-type 4,Ecart-type 5,Période interpics
265,8350,0.0427872678752739,-0.0826376810670129,0.4711763747789465,-0.3997622255574573,-0.208082133707419,-2.128553684705492,0.910181019747371,1.3951284905269603,1.820029149114856,2.3929159104684743,0.0048201356389197,0.0010137441393231,0.071344882730701,0.0776038607188518,0.0456845522304396,1.186
265,8351,0.0141380410078252,-0.0288062852049152,0.6043578883289759,0.050638769996088,0.0558432835672252,-3.141588890884281,-3.141592653589786,-1.5334428873685295,-0.4661718123091996,1.668545213134627,0.0102202808091211,0.001,0.1734314960073988,0.0010005916831746,0.0044728746258046,0.476
265,8352,-0.1344526861157908,-0.0108862587673057,0.4692143338795652,-0.3454153414874724,0.0585536477213385,-3.141648953283056,1.0830756559848562,1.5006110885477464,1.917708434207973,2.6840606791247126,0.0071712785729015,0.0010486607042923,0.0897624950268902,0.0708467758258326,0.0038589114569995,1.384
265,8353,-0.0350705908061889,-0.0477670739748949,0.5503342420905977,0.079821764045174,0.0936137703805103,-3.141670384011895,-3.141592653589773,-1.6820519677014174,-0.7173709624655635,2.510818048293883,0.0037846586202244,0.001,0.168956905450954,0.0011470074278663,0.0252868294451893,0.484
265,8354,0.0529724591292178,-0.0696125663439892,0.4499055564009667,-0.3630897682077599,-0.0782201579315159,-0.006303257116259,1.3264506254356732,1.7588718844148672,2.1511259727210765,2.621316000113332,0.012222352790751,0.0007363975251483,0.0647289390591662,0.0732024428114199,0.0229474861431388,1.548
265,8355,-0.1194880039842171,0.079505272224981,0.5750747046406919,0.0360105528880153,0.1048167342957116,-3.14164518145996,-2.73519941044304,-1.4216497978402938,-0.0541653905761658,2.640349400612647,0.0112138637669918,0.0037137623108373,0.1763375544099425,0.0010000029692463,0.0038057699013539,0.432
265,8356,0.081964226954184,-0.0257216403820344,0.4842805023300832,-0.16454278519521,-0.2424669688743722,-0.2042100436827365,0.9549912370192352,1.5220529309456172,1.9299492232770925,1.9301405022667872,0.0141927537665908,0.0010668233381476,0.0870362578194648,-0.0046747289195191,0.0606421422497086,1.424
265,8357,-0.1324492947635331,0.0149125068209229,0.5191120384608777,0.0197391552502492,0.0512709152501097,-3.14164113145796,-2.7124970716480954,-1.317701507562118,-0.0612993688505283,2.712441059101073,0.0038294722827691,-0.0001379829057689,0.1300437719833407,0.0010000000135169,0.0045705155874678,0.484
265,8359,-0.0711697478393196,-0.0853752495332924,-0.0819333885446174,0.0805664495668639,0.0211277132292093,-3.141593791187272,-1.2566370614359172,-0.235619449019235,1.7278759594743862,3.1023488500798075,0.0097684167270354,0.001,0.001,0.001,0.0111592600569973,0.396
265,8361,-0.0048318464950532,-0.0201885935925578,0.2731769679151917,-0.225915515186209,-0.1237096838522466,-1.8770799190953185,0.2371013323463987,0.9681637737399466,1.6587503739264071,-0.1185076212778911,0.012263086947115,0.001,0.0010000157391183,0.0065616638361122,0.0349549484007613,0.932
265,8362,-0.1337845331976113,-0.0278445440440269,0.2814269795079193,0.0028087287703404,-0.0635475508958005,-3.141607834839909,-1.7721804707878226,0.1611073155687069,2.2018001571690364,2.20166554123336,0.007001969263187,0.0010003776421675,0.001,0.0009529783180907,0.0084416833508221,0.428
265,8363,-0.084378666064153,-0.0509161790813572,-0.027921368612376,-0.0626142286079379,-0.1770952366962398,-3.141374585965424,-0.8434626190571821,-0.3056023982091238,0.354498781922584,0.696899400713848,0.0262426035158515,0.0010000000000034,0.001,0.001,0.0515887549496431,0.508
265,8364,0.0837907494250418,-0.0064345109382344,0.2705539999442534,-0.2436096131406468,-0.3575420936115981,-2.740994953235449,-0.7134294073889174,0.0876141377495161,0.8636250721023737,0.8637327999612953,0.0064241601616947,0.001,0.001,0.0009999999999965,0.1098377730106019,0.52
265,8365,0.0664816869498333,0.3809556303157019,0.4713501800316471,0.0716765928120506,0.111188541999155,-2.8731056763699447,-1.7596428669635795,-1.5428728956170574,-0.496747554321766,2.3894375286079623,0.0158197762563653,0.0885502158477308,0.0830367220829877,0.0010013615001626,0.0041517103759676,0.484
265,8366,-0.1294274339383505,-0.0271674484856806,0.4599688361312081,-0.13623520885475,-0.2366155649460563,0.19907189009186,1.033940848537196,1.4718312721321627,1.8695535055274848,1.8686282867042567,0.0322539065087463,0.0012051595913918,0.0891418745590154,0.0006481846450402,0.0558891344222341,1.388
265,8367,0.350827660873558,-0.3273953407300662,0.0493655524139823,-0.4836214220287702,-0.3271930776049804,-2.476739812544974,1.7421814238587483,1.933903286422707,2.105397029925263,2.6627161238464105,0.0967592664968303,0.0851760698597066,9.007827346429926e-05,0.0785673492854345,0.1032656431563358,0.508
265,8368,-0.4570665365335347,0.1409348874924576,-0.388960668583567,0.008010753324967,0.027762127534476,-2.6782595975930774,0.4127039312657838,0.5398213169567182,0.9559663036598808,0.9559741547186666,0.1350147038735147,0.0261955859805474,0.0678039988318409,0.0003173876297117,0.0107464897253325,4.216
265,8369,0.117771256892039,0.0013841593562848,0.4971764761681332,-0.2298237124936857,-0.0874595738585425,0.160664980606837,1.2688271053211004,1.7348715283628593,2.0772853338585406,2.6651267407679766,0.0298874400566262,0.0009147832467141,0.0695159013235764,0.0536592746757787,0.0242132243580589,1.752
265,8370,-0.0856801572593329,-0.0473910364498346,0.4425655133869936,0.3454001820370391,0.0656011491981831,-3.141405800664949,-3.141592653589759,-1.7840678223084745,-1.6193135545144433,2.393445864388422,0.0198893507421253,0.001,0.0715766299971648,0.0607043291538022,0.0037550727914063,0.516
265,8371,-0.1411350204091853,-0.075282097943774,0.3609937396017404,-0.2917700155542544,-0.1662332081170634,-3.141657178536375,1.263115004088159,1.6654463753666466,2.052801027462439,1.095068943803432,0.003203169688205,0.0007811273128103,0.07517940905282,0.004979885632957,0.0383861652765269,1.5
265,8372,0.0010088352517481,0.0755397278894121,0.5919799286345538,0.0558137195158587,0.0059244804360724,-3.141606121869822,-2.960397766297182,-1.5588826785901144,-0.3745745162846156,2.7549366543569165,0.0090049931830396,-0.0134482483976707,0.1660149502308086,0.0009959357790818,0.0109608798739873,0.44
265,8373,0.0609409056540433,-0.1499623838651061,0.4523908940609741,-0.2758795977468886,-0.1839583379189858,0.0954661555945453,1.3615865069448914,1.7806215972874306,2.161770051557513,1.122854434544295,0.0093947183415457,0.0279964971694736,0.0794524936040948,0.0543875706882556,0.0352028638954085,1.64
265,8374,0.2279442725059417,0.2282972916068377,0.0409839921096346,0.415622911563746,0.5503731326527155,-3.141659527098083,-3.1415926535755863,-2.459579841317745,-1.2534639361779918,-1.2536177286581685,0.003690647350171,0.001,-0.0001212821563119,0.0008842126691656,0.1516845494712839,0.464
265,8375,0.220544428064398,0.2207829091533025,-0.095036009121709,-0.0906702219434323,-0.0843702446200965,-3.1416394076475465,-3.141592653555098,-2.843911135728438,-2.6688640400222883,1.5314016387913156,0.0041162224941226,0.001,0.004566942823531,0.0051876012911515,0.0180436906863268,1.12
265,8377,0.140111214158507,-0.0615693411792228,0.3931313113281476,-0.1863591255300153,-0.1741766666364582,-3.141592658464045,-3.14159265358978,0.3959990739819066,2.032795246440463,3.088743165500052,0.0099986255077022,0.001,0.001,0.001,0.0101071596555865,0.272
265,8378,0.0175285782452677,-0.1477608614011755,0.0767287408642907,0.0366594289054832,0.0693637702753822,-3.1415926606165323,-3.141592653589793,-2.2588310815065227,-0.4933079373405462,-0.4929106383531834,0.0099982409701684,0.001,0.0010000006158476,0.001,0.0169655743000912,0.316
265,8380,0.2517368645006835,0.2517496743964665,-0.0805274159976729,-0.0614559291409304,-0.0599888124965091,-3.141592809797477,-3.141541398541838,-2.0125827937059526,-0.6872233929727671,-0.6872551425605788,0.0099698477200424,0.000968999288509,0.001,0.001,0.004841555550247,0.124
265,8383,-0.0410059725183086,0.1362051471012327,-0.0277481639716578,0.0089364864583121,-0.0381805481943169,-3.1415925810703085,-2.6891932691662666,-1.469090089808177,-0.7458457379026124,0.6552943055176459,0.0100165243034463,0.0113487756526882,0.001,0.001,0.0137482124619694,0.2
265,8385,-0.1499763465617326,0.023976293903497,0.3882643953588769,-0.1847374414272097,-0.0141529595883895,-3.1415929533039613,-1.469090089808177,0.6102374219203193,2.056726125731447,3.0964347589434627,0.0099313342472078,0.001,0.001,0.0010000000538596,0.0100081155132128,0.324
265,8387,-0.1496898016433847,-0.0330232815881205,0.2798510665312695,0.2622524557010774,0.1273682247181052,-3.141592664249368,-3.141592653232554,-0.05235987755983,0.7853981633974483,3.0894308526834657,0.0099971504663006,0.001,0.001,0.001,0.0094659175515248,0.124
265,8389,0.1003748318846729,0.1737693354959966,-0.0295917828224133,0.0205754813377604,0.0184197693194235,-3.1415926547074924,-3.1415926533812355,-1.3546316946671584,0.3170414604540159,0.317059262337162,0.0099997231633005,0.0010000000074731,0.001,0.001,0.0080930588823826,0.348
265,8390,-0.1347651797288427,-0.0507316829491309,0.0254878599121386,0.0182544992967987,0.0169628540017743,-3.141592663096279,-3.141592651963063,-2.296794629095296,-1.663196110724008,-0.3960240634965403,0.0099975368414617,0.0009999999999514,0.0009999993217647,0.001,0.0073672164477328,0.204
265,8395,0.342498217601825,0.2944800529182771,-0.0109461085306161,-0.0181710813813099,-0.1107590948866207,-3.141594370843171,-0.6957889769695513,1.6235076129289538,2.382550103626229,3.0994083691570253,0.0096196115085861,0.001,0.001,0.0010129952379968,0.0099085948846691,0.232
265,8396,-0.0623820974232514,-0.0975349786801072,0.0843002067515089,0.0533306853653844,0.0731512634017398,-3.141596454448944,-3.1415926535886545,-2.259742136318234,-1.23091641982758,0.2382590520826527,0.0092944896155741,0.001,0.0009725777323558,0.001,0.0124205994688871,0.364
265,8397,0.2178214980669006,0.2178453095149916,-0.0590200161861562,-0.0535284598139251,-0.1708214963372004,-3.141596403573808,-3.141592377442872,-2.351254962589387,-1.2052651060941977,-1.2050575541614523,0.0093460208085327,0.0009999988536739,0.0009598722198249,0.001,0.0265014462564505,0.32
265,8400,-0.1086111794260726,0.0872179068331403,0.4054005627425786,-0.1579396619054559,-0.0376049473247499,-3.14159558931376,-2.398020712478877,-0.0185893056425432,1.1339476441951328,-3.141595578405235,0.0094157562357849,0.0008434336524119,0.001,0.001,0.0094502261439071,0.332
265,8407,0.2101547700236335,0.2101977497080283,-0.1907045517387435,-0.030521890352713,0.1040195064910416,-3.1415991791754667,-3.1415925775989555,-2.516724418296933,-1.23091641982758,1.2303747091918962,0.0088791043301141,0.0009999999093294,0.0187351802297387,0.001,0.012585128924995,0.4
265,8408,-0.1258562730385777,0.0315840536755871,0.3679778148250647,-0.2039851949234159,0.0377133494173973,-3.141554898635803,-2.2304733655968905,-0.7539822368615505,0.2513274122871838,2.387584225361273,0.0148572412567545,0.0049960376981354,0.001,0.001,0.0088048669694595,0.284
265,8409,-0.1422671986332239,0.0663763332050225,0.5146157511229562,-0.0011973874058295,-0.0971550377730711,-3.1416793519042034,-2.806850699322588,-1.605053798486718,-0.6630185664314855,2.2986399920846603,0.0030305941930677,0.0032291301663285,0.1366657632164692,0.0010005821900531,0.0219869100658614,0.516
265,8410,0.0902872530113158,-0.0797001972248013,0.4350071821735079,-0.1615731344508147,-0.2154498894095852,-2.644728378775639,1.1547785268824602,1.5650321462229977,1.94906470102548,1.9489533389829576,0.0034991265594305,0.0156828237673826,0.0833744322122552,0.0241450623900189,0.0480093997165987,1.512
265,8411,-0.0813387427034407,-0.0598325138455314,0.4084239580300804,-0.0096467526123212,-0.0880696059578516,-3.1414396967695195,-3.141592653589676,-0.0826734908839417,2.2873004559397696,3.114076432678518,0.0219415386813439,0.001,0.001,0.0008287855327364,0.0292935785874384,0.512
265,8412,0.1419715705219146,0.1426426167854708,0.0707208608910472,0.035171514624588,0.045081556718759,-3.1416515923599766,-3.141592653588419,-2.794134649059706,-2.4943854237778225,-1.5787356664016083,0.0038467281085791,0.001,0.0040688681017382,-1.872546971054675e-05,0.015231040699681,0.4
265,8413,0.0695018284904852,-0.0276092351598961,0.3808811817490815,-0.1776777840139608,-0.1880720771309467,-2.8703116850848884,0.8513188705217125,1.4693388425021794,1.9362627327943247,1.935958754517363,0.0041131762278001,0.0010012167591274,0.091999148934099,0.0145533810799552,0.0487226693700019,1.192
265,8414,0.0578632396626794,0.1130960757108934,0.4181908742108909,-0.0014401309228819,-0.1149883230568715,-2.796374447679155,-2.4680862377182176,-0.7767674142517014,0.4833219467061204,2.140515001929829,0.0178241951711119,0.0050744251918675,0.0010001391911932,0.0010000000046906,0.0252532253783615,0.476
