Numéro enregistrement,Numéro battement,Amplitude 1,Amplitude 2,Amplitude 3,Amplitude 4,Amplitude 5,Centre 1,Centre 2,Centre 3,Centre 4,Centre 5,Ecart-type 1,Ecart-type 2,Ecart-type 3,Ecart-type 4,Ecart-type 5,Période interpics
290,9244,0.1381290454555604,-0.1972943751040075,0.4772024675668325,-0.221930163780651,-0.0865524596469644,2.1753977878621886,2.4542852791915246,2.576793894186429,2.703415746448036,2.936934856582877,0.0220253331713157,-0.0163356348268511,0.0277989092824771,-0.0496059002640459,0.0088185702839704,2.83
290,9245,0.2144773488096498,0.4430305588583968,-0.0189528756830952,0.026534328349516,0.2826854220765091,-2.832834253941974,-0.9803001607564604,0.023156702606311,0.2392859269318174,2.106985695661459,0.0399029923069849,0.0010940604951704,0.0010000000031155,0.00100000022006,0.0482140079192711,0.56
290,9246,-0.1222275246954586,-0.0810150253887771,0.4582130378422522,-0.1325998222988048,-0.1019452667958622,0.3165338194575324,0.6029319233861582,1.1105343621138688,1.871618187407302,2.1892432235215447,0.008052694007218,0.0010000395519311,0.0404702889378734,0.0050513182006929,0.0049034335785802,1.068
290,9247,0.5838319029189871,0.4248237593247039,-0.0209069237221637,0.0170313042903998,0.2136437814287244,-1.17681734988169,-0.938009581261402,-0.1637797117986242,0.0148890647089541,2.0550638652274134,0.122473150882017,0.0012688045818433,0.0009999997418315,0.0010000000419594,0.046580189328915,0.516
290,9248,0.0292212975888483,-0.1575054572757485,0.3995233778295469,-0.173549783478704,-0.1458202015477524,-0.4928184899407804,0.5665167074712456,1.1692542588170531,1.7879845232469762,2.3766080021338114,0.0078210346070275,0.0010005141866585,0.0720761316024197,0.0396869496126346,0.0331920648646952,1.174
290,9249,0.2081986078906154,0.3654406379551811,-0.0568642055596397,0.0652618009154239,0.1988159454392809,-2.5325386310242086,-0.7373125607983003,0.4327704165651228,0.961712033231518,2.291966962690536,0.0517448584958055,0.0010007713600314,0.0010000017663301,0.001002250643262,0.0476739111925123,0.534
290,9250,-0.214508194019211,-0.1457639586672367,0.4361957049600221,-0.1308380491543597,-0.144904366475425,-2.657908789784849,0.4749888096932374,1.0916408713097627,1.6582945177713335,1.6584433428948118,0.0500086819275225,0.0010000018195792,0.0010385964847582,0.000753900358973,0.032141132355144,1.032
290,9251,-0.0013403571944301,0.4057873923358653,0.4415362300290195,-0.0826228400717485,-0.0478733671129027,-3.0388706288516296,-1.0700247285777045,-0.5050516800038864,0.5050516800047087,1.4981439887203345,0.0101801063041414,0.0010111219513043,0.0010000029280466,0.0010000005478673,0.0200822951096882,0.476
290,9252,0.1009827423038431,-0.1221294239218634,0.4146005495710159,-0.2197642136251875,-0.2173646070453594,-2.875816624808025,0.4155545838079496,0.91422008058884,1.4949364942628738,1.494960732618167,0.0286494681616577,0.0010000006685346,0.0010030978029447,0.0055264926914548,0.0097507219379952,0.992
290,9253,-0.3121498943254344,0.5853070568119235,-0.0422281399484091,0.0519660684775322,0.1855358983294311,-3.1416255416048,-1.1575256548272088,0.1352838941736422,0.3757885949220675,1.7590409848442965,0.0034260452311429,0.1192585975898834,0.0010000002417996,0.0010000079204212,0.0415261508293529,0.52
290,9254,0.1865859775300492,-0.0570681659292768,0.6025755596952946,-0.0141058756812899,-0.0935873789950464,-2.749452051743899,0.7157105572604092,1.2130062432836992,1.8909526123341227,2.523939471066808,0.0465834909443128,0.000999463854157,0.0829839076155251,0.0038381670887228,0.0299070881485782,1.152
290,9255,0.427713804877093,0.3985823755210241,0.3577728248814281,0.0544666368910052,0.1399348007171294,-1.3825868088261997,-1.21099941341241,-0.8876735740590741,0.0231567026063136,0.0233810597700337,0.0946397557051764,0.0669057180998138,0.0010151532628667,0.001000000008403,0.0373687712093323,0.516
290,9256,-0.1661692629641527,-0.1812514843366305,0.6337109920609265,-0.1519048794160934,-0.149766084787329,-2.6265526577983134,1.081531889473822,1.6482967264018151,2.4036257273678627,2.403596117148369,0.0467906510747376,0.0010050216561395,0.090375337658501,0.0282507154531545,0.0256134396284424,1.112
290,9257,-0.1984572947076497,-0.1984612366566391,0.0906444859447251,-0.0126500173412065,0.0227211445236823,-3.1415932685363765,-3.14159146832881,-2.4183481354875687,-1.3786845458199812,-1.378662386899909,0.0098831324925021,0.0009999793149699,0.0010659016415605,0.001,0.0077357096802715,0.392
290,9258,0.3266985344816424,0.3351362580564201,-0.1991102923803724,-0.0926771097187399,0.1217347221644874,-2.469335300039016,-2.069633695107952,-0.935122896887798,0.2206469756701853,2.0698792821987397,0.0777758894624264,0.0739428628560291,0.001000000482829,0.001,0.0339005385685719,0.164
290,9259,-0.472986705076637,-0.0847522913248731,0.3599601532195553,-0.2233432351862982,-0.1225701191498923,-3.141661149895468,0.4069420535734352,0.9766609108962424,1.3994934130906658,2.018491199763317,0.0044601688423098,0.0010000009689887,0.0010111178512368,0.0332520392455963,0.0074979890401405,0.992
290,9260,0.2782992170372966,0.2785906590834874,-0.1150431506145648,0.4437471606950204,0.533003151971031,-3.141673938874407,-3.1415926535430203,-2.894152967879225,-1.5788771873747074,-1.005569591386387,0.0035204050888967,0.001,0.025586162268976,0.0887015773779119,0.1175839343938692,0.552
290,9261,0.237112418295318,-0.1049596659159053,0.4478428018717331,-0.1218904310536211,-0.1504746082063565,-2.708903277630537,0.4986655005689157,1.196718121768468,2.111574056477144,2.111191685983964,0.0528922034639151,0.0010000021025126,0.0410526157733824,0.0003163748373548,0.0464823972694439,1.072
290,9262,-0.2924754577869932,0.2855614248213829,0.3827825219522568,0.0202777996061197,0.133588879501215,-3.1416159564885624,-1.228555699323224,-0.5616255023169638,0.473871517580579,0.473998835169064,0.0040728915438503,0.0010405237782705,0.0010000022669227,0.0010000000134892,0.0335256306017894,0.44
290,9263,-0.2430230339502868,-0.2431403299588873,0.2077036589425796,0.1776294896268948,0.314783109651889,-3.141621823773684,-3.141592653288348,-2.5481244346617298,-2.159114278060529,1.4230091176515371,0.0048275533917935,0.001,0.0595538793008295,0.0446167843535992,0.0751016590181575,0.988
290,9264,-0.07302008510177,-0.1310377739697507,0.3696683442849661,-0.1787525245980807,-0.2260931746823021,-3.141592653953869,-2.449865830577301,-0.086465852851095,2.104002419376659,3.083837999615734,0.0099998933339004,0.0010002621753925,0.001,0.001,0.0102646979488998,0.24
290,9265,-0.2163546056586847,-0.0892473752683245,0.0070048957203473,-0.144230814928378,-0.3178671249317945,-3.141593002372998,-1.9578041174545089,-0.8650762379450154,0.5918942680676422,0.5920664656264476,0.0099181941787232,0.0010000000001387,0.001,0.001,0.0915600308137834,0.356
290,9266,-0.1791625593432705,-0.1792410156648488,0.3030151836268711,0.3006662505436946,0.500440799589878,-3.141602955949104,-3.141592648057729,-1.4461299516524446,-0.7812426175593665,-0.7814653734028335,0.0082045025308171,0.0009999999994934,0.0010000000000346,0.001,0.1286434110582654,0.196
290,9267,0.0304578720798049,0.0242743879330059,-0.2392276822003608,0.0819053232285948,-0.1642522341279512,-3.1415011163646023,-3.14159265358977,-2.8856109942123727,-2.559623005556625,0.3723971232745303,0.0177513757481897,0.001,0.0594508226589495,0.0085670640552125,0.047032951110981,0.404
290,9268,0.1712061836127578,-0.0406168508113408,0.3852229297366868,-0.1250610620020242,-0.2293124579504884,-1.3222670476200775,-0.1163552834662886,0.4759988869075449,1.3856856473286578,1.9145756217073508,0.0477201561163262,0.001,0.0010000000000277,0.0010010313073658,0.0575268750136579,0.676
290,9270,0.1785475513975666,-0.0772597096905921,0.6119768880940117,-0.1010427652884367,-0.1657411318787248,-0.0367444595230062,0.6548050252618701,1.1992619442236985,1.8024752621189144,1.8027082330246504,0.0424954221021523,0.0010006987609588,0.1076404035644369,0.0117763145070424,0.041681713721067,1.156
290,9271,0.2480420824141253,0.4634671038294479,0.6159591346822754,0.0316802827120453,-0.0461543924605467,-2.2987471736535188,-1.6191233638409337,-1.1305406332462553,-0.2735033604289157,0.8055733998049743,0.0660519292933312,0.1188874720407508,0.115683479644162,0.0010000022909382,0.0109389648929422,0.552
290,9272,0.1332527393801118,-0.1738640558704419,0.5730506815890599,-0.2510588836745929,-0.2001759936803526,0.0302950430811516,0.7249829177749829,1.208549100680485,2.205714762358972,2.5828430260799395,0.0373086671289946,0.0010017516788436,0.0928166011995014,0.0516529912065803,0.0546947090688849,1.148
290,9273,0.1498628470908175,0.4342843439950943,0.5752705015145756,0.1151725389941906,0.2494509104084105,-2.67086991345906,-1.8772334617362063,-1.3655788915812748,-0.3296317769651246,-0.3295244452498963,0.0450046480796784,0.0988538748097751,0.1407045829224716,0.0010003615757207,0.0567331199500154,0.516
290,9274,-0.2488950262974386,-0.2198040449318635,0.3740007557587942,-0.2922198123707265,-0.2743971014950064,-2.7519132230709364,0.88536697057532,1.3155186110477155,1.8390588812228743,2.3496518194033635,0.0587026488317569,0.0047306290038979,0.0515442513279302,0.0559362375781432,0.0621973984424912,1.352
290,9275,-0.3296535923405017,0.4719613597327358,0.5841203485360502,-0.0403449634973902,-0.0287656891075688,-3.141608472086601,-1.8434199192545864,-1.2529995053660072,0.0442477838533436,1.5338435252464275,0.0033407317780284,0.1018177900610821,0.1213782758499167,0.0010000001782393,0.0063687665908914,0.52
290,9276,0.4306798711551652,-0.1796051627812615,0.488196605199986,-0.2231711795120659,-0.2489254794146299,-3.1416095085693594,0.6343600543907308,1.2696533957610316,1.7971264067351231,1.7961075873442731,0.0033213190560568,0.0010006124731485,0.0831933043376952,0.024980616446248,0.0050340365610229,1.184
290,9279,0.0460613525004925,-0.1143406669619801,0.3640933810958908,-0.151900528276766,-0.1771258410400988,-2.4661985926762244,-0.1330316107383305,0.4809604388231934,1.2382172996887468,1.2380840284800474,0.0216580627977091,0.001,0.0010000000001734,0.0010002827993741,0.0332911043307332,0.716
290,9281,0.1090017677598585,-0.0583736778708605,0.6703589999390434,-0.1190391715005066,0.0895746718339186,-2.6823505778131564,0.817674788674865,1.3060078373473687,1.9795329787455855,2.381383661318184,0.0276868802291979,0.0010059254161299,0.0917735459179243,0.0261620779627911,0.0267119745918264,1.24
290,9283,0.148832305661377,-0.2280428515712005,0.3408769457012226,-0.4546805026358177,-0.1456294872792056,0.0815044790375607,0.9868403433037378,1.674862353437608,2.435899790704427,-0.4796864921793862,0.0437461272234413,0.0010003619388816,0.0833453711856562,0.0829277982484559,0.0439585795327835,1.108
290,9284,-0.1227116504478714,-0.1688665434950836,0.0425834257429713,0.038271904427791,0.1609388599859724,-3.141592775337276,-3.141592653617057,-2.368277538201333,-1.7882912028126514,-1.7878523688999843,0.00997430582193,0.0010000000013808,0.0010005862606164,0.001,0.0180680461296486,0.356
290,9285,0.310906978847575,-0.0070799767931948,0.4358095463094162,-0.1839461793189631,-0.0841431754475964,-3.141608916074746,-2.8444899464004845,-1.932518231515841,-0.5847128282706547,1.377681030813224,0.004622300229917,-0.0001885079600551,0.0900224948295881,0.0010000000051417,0.0299237290684356,0.164
290,9286,0.0677097687902377,-0.206129958932445,0.3482666228097135,-0.2443017351639638,-0.1464893633170037,-0.0456803889278684,0.6428042605323425,1.3669351989469236,2.1094937348696834,2.4173689393598665,0.0097671930462433,0.0010000012965184,0.0166514194578488,0.0593573601273674,0.0422457398616097,1.028
290,9287,-0.0688213708650651,-0.1545404232032387,0.0789057416599962,0.0228592529571977,-0.1489165288565626,-3.141593003527169,-3.141592653589793,-1.840075697102593,-0.7629582158718069,0.5827406162650177,0.0099274860907477,0.001,0.001,0.001,0.0315776613377918,0.436
290,9289,0.1750040503462615,-0.1932739869824456,0.4124034411793973,-0.2119310283476065,-0.1676276390082539,-0.3673427663960203,0.4177649805302739,1.019346535388031,1.78820553692363,2.4899541345939933,0.048269863420537,0.0010000008745712,0.0010110613151832,0.0470220588363522,0.0463954963542926,0.988
290,9291,-0.1289373205236091,-0.0703163903954676,0.6124368800488955,-0.1972554750049442,0.0645575516227211,-2.941557322330379,0.6375359173284398,1.1755639525050552,1.6813566125747927,2.619417558442895,0.0092250884939051,0.0010001496679169,0.0839713325109157,0.0095418676851675,0.0217265488829287,1.116
290,9292,-0.3853654984805219,0.3715428273841608,0.3742434502262716,-0.1090227135128194,-0.1359841683305852,-3.1416046180098816,-0.91594118113963,-0.5906536596624132,0.5906536596654839,1.994713781257508,0.0059846000468152,0.001001187506711,0.00100000976582,0.0010000028446064,0.0320535036210486,0.52
