Numéro enregistrement,Numéro battement,Amplitude 1,Amplitude 2,Amplitude 3,Amplitude 4,Amplitude 5,Centre 1,Centre 2,Centre 3,Centre 4,Centre 5,Ecart-type 1,Ecart-type 2,Ecart-type 3,Ecart-type 4,Ecart-type 5,Période interpics
291,9294,0.3404356238472424,-0.071567193638648,0.472908880137719,-0.1376896784673335,-0.1728863194997147,-1.9931795875024547,-0.8449800930344956,0.1083307811582687,0.8016477805711884,0.8004949772350463,0.0793870697889287,0.0010000000057176,0.001,0.0010000000041078,0.0079697413244536,0.36
291,9295,0.1930320515802213,0.4551626055376855,0.5157584463646043,-0.048541043334894,-0.0648900006629616,-2.2171094506124875,-1.5856613280109464,-1.1151897974793792,-0.0734016975136807,1.086283343976867,0.0409276318875215,0.1042957905611406,0.0997549720042266,0.0010000003456054,0.0172427515034473,0.48
291,9296,0.196849132919843,-0.1232418993425161,0.5404564649237305,-0.2091042957246424,-0.0729224906640825,-0.3669502034261105,0.6312545974868542,1.1158302732380898,1.7029193823197009,2.378032343073269,0.0503900245703401,0.0010009122722577,0.0733170479674448,-1.052898873049688e-05,0.0044332376188641,1.232
291,9297,-0.0047286197974574,0.4282514290892155,0.6552221708261979,0.0174928546696537,0.1649086372047759,-3.0010304025841448,-1.9754774808208544,-1.229515394120234,-0.3865494316232181,1.567527946165867,0.0117402600902757,0.0910293752136364,0.1605285053937258,0.0010000277744632,0.039835288998574,0.556
291,9298,0.1294286414032701,-0.1204684199047295,0.5862350897281263,-0.1965797391673422,-0.067949140659664,-2.7803544395089705,0.8016477633232889,1.3504118504857985,1.9717173079745869,2.2894486587446274,0.0333413436273866,0.0010091995479845,0.1001429936199675,0.0409129186060693,0.0226972287660953,1.232
291,9299,0.2017162258218278,0.5148025256213337,0.4942154658295047,-0.0596926233620378,-0.0863097690480308,-2.707221837189938,-1.259887708578915,-1.0127294780222416,0.0289547710010056,0.8686098603674094,0.0438059664958535,0.0994272792918309,0.073010848788287,0.0009999997980365,0.0272230775033338,0.508
291,9300,0.2559590448979324,-0.1116617757451843,0.5058375798002375,-0.3190427771690282,-0.124105325756347,-0.3731650112010637,0.631187562952072,1.1762781877096096,1.7503452494599905,2.596517075367365,0.0553331802912002,0.0010015503336392,0.1007566532102284,0.0570611963051905,0.0346323730787728,1.228
291,9301,0.2915551546995814,0.4694665900300034,0.5661873619161542,0.0498822085639718,-0.0684430671245265,-2.320686593521069,-1.642524086370015,-1.1049856056103586,-0.2052296708374977,0.9788404311353944,0.0677577305070215,0.1144864928813914,0.0690370696733295,0.0010000000954791,0.0183703728024908,0.524
291,9302,0.0875688414850662,-0.1099330721939258,0.3323312689084681,-0.26842703024146,-0.3221055188950512,-0.5075131941314728,0.5711986642644453,1.0630639284419527,1.6025295987249908,1.6029283363077738,0.031529257930683,0.0010000349338127,0.0010925021358816,0.000679438644852,0.0630315890971689,1.068
291,9303,0.261786200484845,0.5518462198334417,0.533067401033654,-0.0495776023353164,-0.0398895409255277,-2.310181087656733,-1.3864834413251492,-0.9393976601620468,0.2155994958344791,2.648755096571733,0.0657055465788686,0.1307514283876353,0.0010634764942969,0.0010000003227348,0.0050848171555647,0.516
291,9304,0.2515178030112657,-0.1577048668306976,0.5911251339164485,-0.179588041615912,-0.0889237048346096,-0.0921954230153968,0.6621984510532706,1.2317880470926543,1.878932418099709,2.2177419272496324,0.0565224950571969,0.0010004250277213,0.1091195645238897,0.0391253518235355,0.0136056095757755,1.116
291,9305,0.106275171352843,0.5013005836908395,0.4222897213005126,-0.0536475198738187,-0.0173000852526348,-2.433622656798024,-1.2828067241316696,-0.9733417226387364,0.1179940902754786,2.6548593277646675,0.0314202057811502,0.1016414889987289,0.0366890976684273,0.0010000005373479,0.0139201169143229,0.516
291,9306,0.2394965804753377,-0.0543079376178231,0.6146756598039587,-0.1262399190838121,-0.1659564489575346,-0.2358106703758125,0.7817108449989489,1.239904571896149,1.8731562061378249,2.242044209942668,0.0583286871542435,0.0010019033277731,0.0941641719979712,-0.0005307449750465,0.0414862215533007,1.188
291,9307,0.2412496143176967,0.5611152846565284,0.5977413736370025,0.0536654763319316,0.0713984521776842,-2.699082171265506,-1.5336898709041784,-1.0025033875803933,-0.1032448289910635,0.4425423579334512,0.0560681973159308,0.128869362081201,0.0944642444606892,0.0010000004456296,0.0158452139824679,0.516
291,9308,0.1392323075511456,-0.1319929240660373,0.5178323997690168,-0.1400287244201485,-0.2460121805639974,-0.3088059808811698,0.3953949563031272,1.0282711490237386,1.5742739490670647,1.574616497746628,0.036546415116839,0.0010001148037359,0.0889013184527308,0.015500909739673,0.0545226556104531,1.188
291,9309,0.2270442357610909,0.2273626625610187,-0.0879248305287516,0.3116331409588632,0.5456527261556483,-3.141654003094362,-3.141592653564854,-2.9141385715993904,-2.1354994709614825,-1.4852563572085915,0.0037856125784216,0.001,0.0037404788262921,0.0705583062138225,0.1145022182115732,0.56
291,9310,0.1249199164802662,-0.0538593786358593,0.4316809269797587,-0.1835895025736243,0.114753725966822,-0.0417254794746958,1.0120566937737003,1.8969598648307284,2.4029726408511265,-0.0416920048901106,0.0223760598140787,0.0010000005367303,0.0112252943144712,0.0194924808797684,0.0249725572648473,0.988
291,9311,0.0583757342263647,0.2171814819978783,-0.1220376012461251,0.009658169867622,-0.1401978661259702,-3.141592775701609,-2.734219952856257,-1.4238873178140787,-0.6554401939144174,0.5645203301277916,0.0099720944710359,0.0124763333153785,0.001,0.001,0.0362038650536561,0.364
291,9313,0.2238553042048595,-0.1277466203645258,0.3878651885557653,-0.1764261277756955,-0.0638290856212869,-1.0181816670905757,0.1404063755794314,0.7546842687089608,1.26365729662198,2.264114308847301,0.0572884437859658,0.0010000000003955,0.0010000514852258,0.0010369570083563,0.0221668896866725,0.88
291,9314,0.3392264608531383,0.2907441702132631,0.5469982001031041,-0.0037215711520714,-0.0057803949035543,-3.141708237050165,-2.5067188459739813,-0.9678643345175376,0.1745329251994318,0.1745116269550196,0.0099888621879454,0.0701162547099833,0.0010359732637011,0.0010000000035041,0.0098618679638295,0.552
291,9315,0.3211972334778703,-0.0599525254123104,0.4936197991029217,-0.0382427483499338,-0.0570177766106318,-3.1416194890853526,0.4601322573417877,0.9678643449940336,1.6659966151516334,1.6661138929284187,0.0036227107445244,0.0010000040629721,0.0010310741778836,0.0007724744693131,0.0210406928387068,1.032
291,9316,-0.1382533315727162,0.306567469637953,-0.1929585033602899,-0.1869085796710125,-0.2459817804902162,-2.925190913574348,-1.0523545186931789,0.0928549552784786,1.0368802119390628,2.5845138058378714,0.0365580912792718,0.0012818230174991,0.0010000001693437,0.0010496806768501,0.0594651478055511,0.552
291,9317,0.1521224562052209,-0.0173062057764085,0.4681917202398254,-0.0882960685333406,-0.12020116632331,-2.867277471029561,0.3795754620019197,1.0902689337850382,1.7522359516139578,1.7525549822235007,0.043114462533318,0.0009999998208169,0.0012228551394464,0.0053007317057017,0.0314579398120709,1.072
291,9318,0.5984994535313745,0.3719612304965418,-0.0153419186152478,-0.0173113873846125,0.0198006794170206,-1.1553010857342465,-0.6057055244001865,0.2665104307672498,0.5249447878757566,2.576297427570484,0.1715862473558561,0.0010001033218788,0.0010000000275959,0.0009999984678367,0.0155424312431009,0.484
291,9319,0.0970379711786574,-0.1205766764618046,0.5291231390510697,-0.1852298337857467,-0.2830928053730057,-2.7181415957523734,0.6836626499440405,1.220672424171274,1.692919689563524,1.692506163553373,0.0192920482707009,0.0010000757681833,0.0741417986075677,-0.0030220138627714,0.077513572103467,1.072
291,9320,-0.0943658227987342,0.3814854596277595,0.4633179591744492,-0.0576714943965406,0.037760574431029,-2.696213091518967,-1.0357839448847934,-0.5392924718675937,0.7960984108292581,2.302715920751166,0.0072709908725373,0.0010064076114414,0.0010000053434201,0.0010000335152877,0.0194554043491359,0.468
291,9321,-0.0146356980218599,0.0535267826618517,0.6620346724233075,-0.0294576957891788,-0.0261657191462293,0.8289957416022969,1.1154188900293194,2.0362484849447955,2.609610092137153,2.609474580874762,0.0139490224070931,0.0010000118073398,0.1540916599581168,0.0002766493442999,0.0186325060000211,1.0
291,9323,-0.2075787618787536,-0.2078102463600593,0.4762855807522986,-0.0593245999058953,0.013626561872268,-3.1416343777705813,-3.141592653558809,-1.5837506716653291,-0.5522684491901164,1.8379199470929928,0.004293036891961,0.001,0.1088605284961648,0.001000000076071,0.0115483531780324,0.28
291,9324,0.1851083673238748,-0.1901454251090057,0.3451512274126072,-0.2375792052044344,-0.3256966711925141,-0.6714819087097212,0.4245395477697891,1.011175691229274,1.6430131178774796,1.6443148440015365,0.0427758056580807,0.00100002143926,0.0011102715073281,0.0048796499346252,0.0717805731675455,1.108
291,9325,-0.3005559457458224,0.4700840556560405,0.4899695189402695,-0.0139438977720293,0.0327074261530387,-3.1416177168255683,-1.554259902234194,-0.9049152737023156,0.2731819698773727,1.4342869920798564,0.0039397632370205,0.0999068510613283,0.0010014648518786,0.0010000000020608,0.0175120623058491,0.476
291,9326,-0.1153740447763756,-0.1555031404183599,0.3866358107425813,-0.1898519890232538,-0.2236860105357792,-2.8678789523493533,0.3167273247488252,0.950181971982401,1.703843211631186,2.131779173129541,0.032672522812156,0.0010000000431737,0.0010019892584732,0.0336280518560748,0.050897789902343,0.996
291,9327,0.5013940428129342,0.3919793353516725,-0.0122264520883431,0.0279687679884406,0.2204840537703834,-1.1588935211967668,-0.5616255023169454,0.7020318778967971,0.8950906442925557,1.9831113490029717,0.1446645803523074,0.0010000023213375,0.0010000007114309,0.0010000305823977,0.051973995079124,0.476
291,9328,0.1455092470050209,-0.06719625589167,0.4404311998617179,-0.1713118752496658,-0.1307505258251762,-0.754550406257936,0.3159143450537217,0.8950906439006321,1.3864271966352706,1.6504477512247109,0.0151433781379714,0.0010000000053568,0.0010004846825996,0.0148164547033234,0.0257194908804586,0.956
291,9329,0.5705801959160348,0.4385099433142175,-0.0357968976902626,-0.000430940627065,0.2057890402485922,-0.8602127687804352,-0.5440747053696808,0.6844810809489655,0.9477430351621536,2.229061203096092,0.1443234808506981,0.0010000019341542,0.0010000015764473,0.0009999989950122,0.0482620053362703,0.516
291,9330,0.0667047993656159,-0.1714459606655821,0.3602968969539307,-0.1317066407222442,-0.1958754814518724,-0.8419325479918958,0.3893039887733729,1.0230546671812903,1.7660361092973622,1.7662258445387928,0.0202994418690049,0.0010000000108871,0.0010009834172087,0.0192212126574945,0.0432865843424151,0.916
291,9331,0.1793910474874414,0.3699169532302796,0.4524604839381584,0.0390283525578234,0.1514483926932252,-2.2030649005249527,-1.181237989333377,-0.7791149777367242,0.4775220833454941,2.488215833495289,0.0447117255810603,0.0012028381343097,0.0010004189731964,0.0010000004078959,0.0418604139462122,0.472
291,9332,0.1407193185523809,-0.1109885653166279,0.4096398411389066,-0.1516621328423762,-0.0684889939824636,-0.4364700762892459,0.4536904922076966,1.189867279180446,1.823395938495529,2.4910391508301246,0.0376412651780342,0.00100000031658,0.001091153512842,0.0152060220084186,0.0180101455843042,1.028
291,9333,-0.3296223138375359,0.4816375536684555,0.445462682101837,-0.0320874277463712,0.0925175702284062,-3.141619457825387,-1.3440831588587363,-0.7449137212671282,0.3886506375573697,2.7691046480183945,0.0036888829020001,0.0909710481598245,0.0010007593686374,0.0010000003430519,0.0193770246558169,0.44
291,9334,-0.0655060505047049,-0.1258893959244287,0.3775902447239334,-0.2244191985689073,-0.1058516280802872,-2.8948473710378493,0.393663944302251,1.0421544010611958,1.644340436539791,2.523691494102589,0.0088227478344981,0.0010000092968618,0.0066941634721946,0.0464423654621672,0.0068484397025944,1.112
291,9335,0.1705805194284788,0.4883708359326285,0.3831282735711202,0.0327208917214508,-0.0152991036196547,-2.275142072130321,-1.2916155969552772,-0.974977022072773,-0.0083331370121748,0.2249216845514173,0.0432576413914348,0.0841399531364615,0.0010059829003487,0.0010000000002498,0.009443880138096,0.516
291,9336,0.0246041002318783,-0.0361647034861165,0.6339485288321414,-0.2379835501107209,-0.34897177102236,-2.853366326926934,1.027982917218293,1.6625894592720063,2.199859712735818,-3.1415959691783257,0.0056855560094767,0.0010000158141555,0.1174526989750961,0.0497892659882458,0.0071975607204952,0.992
291,9337,-0.0338651772376735,-0.0434521788695214,0.0576656276264995,0.0344039401324302,-0.0380001205483408,-3.1415927270168185,-2.960781601654448,-2.1923344417104715,-1.4238873178140787,0.9719055648755712,0.009983234713452,0.00861923719364,0.0010000066909949,0.001,0.0076375977574077,0.316
291,9338,0.1853620345309842,0.1855427250592184,-0.0969864143138834,0.1617520819259811,0.2618645387761297,-3.141621127861336,-3.1415926535508945,-2.847250580693504,-2.238160396264145,-1.85967325098012,0.0050865663801424,0.001,0.0059755371846344,0.0420735532751019,0.0672056440842975,0.24
291,9339,-0.1909979065740863,0.0357819517638584,0.4633824155505269,-0.0806627754906531,-0.2017872507725509,-0.074724973046259,0.191662151280013,0.908311930786628,1.6418232715076042,1.6418810321557449,0.0469057123511471,0.001000000004309,0.0010029732374687,0.019472068376546,0.0451864554126794,0.956
291,9340,0.2718223120101786,0.2720216682583548,-0.0320107536316026,0.2471476403132379,0.5311108277608523,-3.1416502058523794,-3.14159265348815,-2.690499335101611,-2.1223544144583557,-0.8188952212557667,0.0038403750387797,0.001,0.0001809807465201,0.0561468797088395,0.1118168432196653,0.508
291,9341,0.1807549585423819,-0.1590493889526838,0.3775523893618236,-0.0971148054205107,-0.113477109648656,-3.1416303287739225,0.4268468279333048,0.9902846361538016,1.7244864266186422,2.492829267998197,0.0101701071023068,0.0010000003273423,0.0010036506665329,0.0250213637405298,0.0365782942227288,0.996
291,9343,0.098228916429697,-0.0046907924748989,0.4311480250421884,-0.1703838156064386,0.0986367267338853,-2.970331809775464,0.522172075937253,1.035783943563694,1.5831335536950149,2.456841936765879,0.0320595930171749,0.0010000000410158,0.0010073166738709,0.0149824452825565,0.0305282345954599,0.988
291,9344,0.3421863749677764,0.3862823642342634,0.4223896305073032,-0.0760958942709912,-0.0822738038597402,-1.7154228179131306,-0.9749770299155712,-0.59581929637008,1.0110872906245243,1.9861076246634408,0.0793637711039544,0.0010005638421465,0.0010000013295961,0.0010001881637901,0.0283669575515299,0.48
291,9345,-0.2172823909233989,-0.1192327028846284,0.4039673742280108,-0.1307524081248278,-0.1679953191299809,-2.7897186130351828,0.3079992797637044,0.8359980449506217,1.381589518274066,1.380567261418198,0.0571756378135485,0.0010000000071401,0.001000168436022,0.0015569702224636,0.0058356475996262,0.912
291,9346,-0.0305389015070335,0.2077870078416785,0.4678135257621562,0.0278594816786178,0.241907710802773,-3.141503116522019,-2.232026472650219,-0.9270273386904002,0.4463464972313192,2.4721331084830505,0.0166469894485082,0.0550434814215035,0.0010016149451081,0.0010000000623529,0.0612104631889485,0.516
291,9347,0.0738769250449269,-0.1098300822178901,0.2812388415763568,-0.1999904294245738,-0.0752478138445744,-0.8569893479182114,0.2855993321445265,1.0779071557249558,1.851734026351591,2.1465960288128976,0.0270003339338489,0.0010000000003747,0.0010010218729681,0.0456409066436615,0.022014923588606,0.948
