Numéro enregistrement,Numéro battement,Amplitude 1,Amplitude 2,Amplitude 3,Amplitude 4,Amplitude 5,Centre 1,Centre 2,Centre 3,Centre 4,Centre 5,Ecart-type 1,Ecart-type 2,Ecart-type 3,Ecart-type 4,Ecart-type 5,Période interpics
305,9786,-0.0215268146230119,-0.170973618347284,-0.1360747261871371,-0.3834873011744874,-0.3089682464432846,-3.1415407936547477,-2.811963653897889,-2.4351936137694588,-0.9530674342351054,0.8594657849840902,0.0147336548559054,0.0444967152736082,0.0069770434402278,0.001000000005107,0.0692901197838947,0.092
305,9787,0.2212432994429303,0.0678179042377219,0.8067562848960015,0.1660162313818922,0.2371400499838695,-2.508587390197516,0.1968845532222477,1.0357839321654851,1.891737937599036,2.200074050594551,0.0454909564704506,0.0010000000021788,0.0010148826294829,0.0333501392795189,0.0547119566092044,0.974
305,9788,-0.5221160924389647,0.2751055864204526,0.3792435946687384,-0.1085210781903505,-0.1466774596633506,-2.7833834950948235,-1.5665014749348225,-0.921891861039186,0.4206691017627322,2.1029752918740203,0.1260841533625473,0.0416761707930428,0.0010003284179178,0.0010000000220864,0.0107981866138942,0.494
305,9789,0.0428514289649127,-0.0778141455624848,0.6238812956349349,-0.1527911466075264,-0.1698202445454082,-2.744348817153294,0.1805513019304475,0.9569218996310564,1.552175912385303,1.551931505368449,0.005967624413902,0.0010000000001179,0.0010006968701588,0.0066259433924149,0.008380866369392,0.908
305,9790,-0.1475400778955561,0.3858837922992503,-0.0743328238489514,-0.0874085407217155,-0.0832490196440032,-2.9087146413127045,-0.6891812943736207,0.3132642247169313,0.6712804815368582,0.6714693072647975,0.0045652243330818,0.0010000084973209,0.0009999999979738,0.0009999985704074,0.0159102422511267,0.484
305,9791,-0.5808994559381375,-0.1800292575856011,0.6734339132758277,-0.1631452384164259,-0.1189070462091589,-3.1415967741318944,0.1083307811582687,1.0833078055472587,1.7694388117688835,2.2203708414853,0.0039431734980593,0.0010000000000485,0.0010049873922353,0.0258537362240661,0.0055489412442541,0.92
305,9792,0.2455177813520851,0.3018546733135813,0.5589755695061429,-0.0044367923132151,0.1533942124833008,-3.1413107169356254,-2.4739125592633,-0.8645799937799228,0.4365700962754187,2.2855665637293807,0.0192210160036187,0.0532957175475431,0.0010008723809452,0.0010000000095062,0.0319733095749158,0.472
305,9793,-0.1445507131639226,-0.1518011260417782,0.7070095828222474,-0.1599210656371675,-0.0769125448566821,-2.765993948226788,0.5463639397538742,1.1439491998049247,1.7065775829697607,2.2025706042715365,0.0208363919884488,0.0010000021895193,0.0011120033257945,0.0055180608444286,0.017415508443409,0.996
305,9794,0.201100917360099,0.2226138764445234,0.1009060259323439,0.4937662249989412,0.6526101456413009,-3.1416118201149708,-3.1415926535751657,-2.751763008110457,-1.195058034886111,-1.1935649692878914,0.0246383684231227,0.001,0.0044387841426481,-0.010109033345974,0.0979695604919933,0.476
305,9795,0.1417356197214641,0.1349577749617037,1.032666015716193,0.0554838968530863,0.7460054993487548,-2.896978837166443,-0.9038410212457624,-0.5132329143740868,-0.1026023547966482,1.7247089357645555,0.0311927395787209,0.0251257357751767,0.1261080601994692,0.0010999411908647,0.146885958071875,1.072
305,9796,-0.1620587978715867,-0.1168587596842114,0.6385826451958319,-0.1812133422396072,-0.0509966375672258,-2.953694910376871,1.001304768092269,1.5526550219983124,1.9525845338337864,2.7285595589227696,0.00304117434476,0.0008493208135524,0.110884335255897,-0.0190468992118466,0.0134996768652345,1.502
305,9797,0.2129152948794712,0.2213000163533146,0.605432702158848,0.0585579675905865,0.1642190562817412,-3.14175939429686,-2.8023791228567205,-1.0868211882845804,0.2207605648468489,1.256535335189047,0.017393850596199,0.0424637702432913,0.0010302281353836,0.0010000000045102,0.0297962590018779,0.5
305,9798,-0.1080868076693003,-0.0517254452391485,0.8682447801869733,-0.0564837724377427,0.864220986299774,-2.989023032416794,-1.1587167146560242,-0.6911498437045505,-0.3659862922132499,1.7892901923789872,0.0024985225318862,0.003464383416334,0.1196090947677964,0.0022132893590643,0.1999191824491079,0.98
305,9799,0.2046157512251714,-0.0079308839597325,0.9029071203012112,0.1833747788806189,0.2894650283351374,-1.441802397079554,-0.374991605712606,-0.0412277394632926,0.3831295383425528,0.7082525155818311,0.0293503850292181,0.0008976648128978,0.1151927129636871,0.0262171280176183,0.0327904284284402,1.496
305,9800,0.2243451653868372,-0.0278936240339736,0.8944648065851754,-0.051092284261786,0.750448873827799,-1.4571046379564938,-0.3674142262492196,-0.0042178390340275,0.2683363705805053,2.13454652934215,0.0323852048692324,0.0008114024767487,0.11375552333459,0.0008076130584001,0.1348753058584184,1.52
305,9801,-0.025427823310577,-0.1374251113242907,0.7961445726778694,-0.7364431294529487,0.5052176757343882,-1.415168197557272,-0.4014928067292672,0.0036446983075081,0.7016781800270036,2.129386852487433,0.0098495559576649,0.002851020407298,0.067450576848634,0.113670117326713,0.0684763325365973,1.524
305,9802,0.3836595352069346,-0.0189552629770271,0.9138491232136108,-0.1459172182206607,-0.1036045611540919,-3.1417878417139264,1.1175629643795646,1.5645844368758408,1.9737004688730224,2.371421406414657,0.0049497243330598,0.0008909044720551,0.126722434563727,0.0038485283914553,0.0036974396919503,1.502
305,9803,0.2877398545973528,0.4615081678045052,0.438157372655979,-0.0955734757604296,-0.1216771046189172,-2.256851208621707,-1.194690099989216,-0.8938052335431701,0.4336282817630881,2.486406654124437,0.0490491210122066,0.0010336749973531,0.0010003605231321,0.0010000000424452,0.0051789091032286,0.52
305,9804,-0.1540548376646524,0.0658271137652283,0.6302664733825513,-0.0941957261392176,0.2412004111062876,-3.141624138518732,-0.0361102603860893,0.9569218996248264,1.4984468384942495,2.1124206829829717,0.004507730017107,0.001,0.0010007040736882,0.0087231012298381,0.0496402983658673,0.904
305,9805,-0.0249812311913943,-0.1598811296383734,0.370769258912883,-0.0730405408729692,-0.0689516146960153,-3.141622821630485,-2.5498406841721204,-0.9055178824503538,0.4065590492880908,0.4068313401114312,0.006312249196613,0.0052879475977628,0.0010000849305972,0.0009999999977656,0.0138367259171181,0.488
305,9806,-0.0573615083612341,-0.0035112080890912,0.8923724995849636,-0.026951594050056,0.454990543851275,-2.9944202001579643,-1.2056928072996376,-0.707416601006895,-0.3339710962999719,1.1598408229495043,0.0126406299412501,0.0008913859979021,0.1374760371324741,0.0010062601639705,0.0681946266622336,0.872
305,9807,0.1219576267625266,0.1652336222294862,1.0423381129122913,0.2181526908507795,0.7960044985683525,-3.141404013977909,-0.6048151969440336,-0.0811987137003507,0.4603858930920208,2.0764732509700736,0.0196036771699212,0.024971570198962,0.1214437979462763,0.0308353632091005,0.1849746873614398,1.348
305,9808,-0.0631123139173481,0.0906100493695346,1.0308853457491916,0.2123972689839497,0.5845798878517898,-2.009404004641869,-0.557421275713506,-0.0392472833128422,0.471249761124326,2.1913232770743307,0.0087837949658453,0.0168203135334766,0.1169520319100743,0.0278284369245169,0.0756577893379668,1.436
305,9809,-0.7218840620160766,-0.2414663790130766,0.6074832358544866,-0.2720707648045566,-0.1892724898698659,-1.8565940498998668,1.1178243297146286,1.5389943281779002,1.9460687781334716,2.403900842983853,0.0995942936414151,0.0060946288483177,0.0489470537088634,-0.0157663867826628,0.0155384730090618,1.474
305,9811,-0.1726317674875634,-0.2035783889250702,0.6287419597446974,-0.2519131362538801,0.5075149731578945,-2.966632209392793,-1.0321857190784445,-0.6627778911211477,-0.2918231527858419,1.855433023696894,0.0024423811987483,0.0020663141234712,0.0776372397357357,0.0034924410295945,0.0608800189697595,0.964
305,9812,0.1163782701183613,-0.0707740891379496,0.9411445924590875,-0.1166819581585352,-0.1413927402373108,-2.889259303040024,1.0976652960768138,1.5265532885717945,1.9557454893475603,2.674482414934093,0.0148226491352193,0.0008397809962691,0.0865793485236567,0.0002999180498387,0.0034482992184625,1.484
305,9813,-0.7223603521640201,0.2142155334112162,0.4992180496658975,-0.1053901650108071,-0.0443105251837626,-3.1415931516352726,-2.2947197404903883,-0.97380903722774,0.2455692370730592,1.8714500960925675,0.0034846796525028,0.0330733033271209,0.0010049326773637,0.0009999999855671,0.0163315886047049,0.508
305,9814,0.2027000308395271,0.0196084421862822,0.9474044882745511,-0.006145687112856,0.3855263507461887,-2.735160525098741,-1.0328982657939565,-0.5730282020501098,-0.2408375916211622,0.8934912636235905,0.0330800082133692,0.0048636912122053,0.1344409614286296,0.0010020636930775,0.0428845223310087,0.972
305,9815,-0.4046873071132956,-0.1277049929419551,0.8184190481284528,-0.230005183700281,-0.2164626746075355,-3.141679402006332,0.8617322093196913,1.4861604038573224,1.919173975478277,1.920230077842296,0.0030044716589805,0.0011458609531351,0.1272033921115638,0.0041142391575117,0.0404486607190166,1.378
305,9816,-0.0681704102626089,0.2617381522488842,0.5093791162740097,-0.07128182510729,0.2324600466069901,-2.93706829905685,-2.3609362328261434,-0.8736973651676428,0.7621615313437866,2.3980881000210026,0.0051898755675971,0.0466283341869479,0.001000056231672,0.001000001192546,0.0487778366391089,0.476
305,9817,-0.1476211578337897,-0.1276531775905081,0.8409821123269569,-0.1879465233953486,0.5225515508770756,-2.973473624727267,-1.0583977565913576,-0.6665185910750311,-0.2967991269093443,2.14517045789642,0.0026997222247371,0.0007209603559908,0.1033244839189821,0.0010656541761651,0.1106056382104395,0.876
305,9818,-0.0214899402675282,0.2029265791429461,1.0137401958020646,0.1717891990549946,0.7357186910307701,-3.141614408734507,-0.4952263473968148,-0.0218851091344924,0.4409654516201667,2.23247349126597,0.009701632853205,0.0327993328497884,0.1143596954719373,0.02847432029572,0.1748904940896033,1.37
305,9819,0.159688702766719,-0.0238387156249624,0.9619949023301052,-0.004035003731404,0.0036730498512293,-3.141206738445273,0.9850754252070456,1.464064814067421,2.0100884622772925,2.010087319116586,0.0332944581705987,0.0010656337794668,0.1633480051556739,0.0005655456074272,0.010078938545589,1.392
305,9820,-0.0543019660364152,0.4137809637945881,0.4400317517619122,-0.022635259096842,-0.0162316351499042,-2.573651074400436,-1.181531918710489,-0.85180208971485,0.4304806260020998,0.4305832785340745,0.005609693593114,0.001008457186576,0.0010000579222295,0.0009999999982444,0.011385575010733,0.498
305,9821,-0.139052338286636,-0.2016390924724019,0.4430625383210707,-0.2870308275145383,-0.2207504046221521,-2.888654001599008,-0.0541653905791344,0.7763705982857236,1.3360789421118386,1.678479484836782,0.0046619045552986,0.0010000000000208,0.0010000292541754,0.0011798424848764,0.0121783667035965,0.872
305,9822,-0.3541728275410081,0.5254385944950515,-0.083788956118712,-0.0795704539062716,-0.1013086203456754,-3.141609434274476,-0.8179294482609529,0.6506256974890652,0.9108759764948048,1.2635209494728248,0.0042507448997403,0.0010000228362467,0.0009999998057942,0.0009999838762865,0.0065783511831213,0.52
305,9823,0.2904327732594521,-0.162291713413137,0.5997904100049704,-0.2067683428858925,-0.2836312311285215,-2.602298221813113,-0.1301251394978028,0.7063936144153651,1.3012513657879023,1.3010700599025486,0.0655302454728624,0.001,0.0010000037778113,0.0010159624149315,0.0662615199464767,0.832
305,9824,-0.3827765384405676,0.6577205868635202,0.5529272743599236,-0.0016766891618652,-0.0478098377015092,-3.1416078386013715,-1.4856113463952192,-1.143215649118512,0.4230798129476231,2.529415440701374,0.0040790598904824,0.1260295360321688,0.0010108107247112,0.0009999999996738,0.0057227223938427,0.52
305,9825,0.2443741986800259,-0.0404020965076622,0.7840601991725227,-0.0261854592272172,-0.0656107643851256,-2.32079076104767,0.1432337076104762,0.945342470166186,1.556472861215855,1.5561831171708471,0.0486857222536216,0.001,0.001000107332948,0.0010326133610603,0.0063884116532253,0.876
305,9827,0.0005490969456179,-0.0749944701121688,0.7208743694758362,-0.1786866301382117,-0.1323801314195769,-2.6964669569280084,0.5392924718693053,1.1213858181384424,1.668383886008471,2.319384494554003,0.0126203650293279,0.001000000864829,0.0010563881851003,0.0107753146809861,0.005149259073568,0.992
305,9828,-0.0479000889660762,0.5235967463719738,0.4846653739784057,-0.0037135416596962,-0.0592468934500257,-2.9183962083308304,-1.3394767204913056,-1.0815318733985282,0.4806808431722126,1.8023385538152543,0.0052935242256563,0.0811869612263584,0.0010149304340696,0.0009999999852617,0.0056304041499738,0.476
