Numéro enregistrement,Numéro battement,Amplitude 1,Amplitude 2,Amplitude 3,Amplitude 4,Amplitude 5,Centre 1,Centre 2,Centre 3,Centre 4,Centre 5,Ecart-type 1,Ecart-type 2,Ecart-type 3,Ecart-type 4,Ecart-type 5,Période interpics
84,2220,0.1938734498428136,-0.0665398671926592,0.3348808971885015,-0.1042206561081332,-0.1123247881223471,-3.141597452248244,-2.1187485346366515,-0.9497838255038912,0.0730602942695304,0.0721139905817949,0.0090137667702227,0.0009992733972151,0.001,0.001,0.0122540692019706,0.24
84,2221,0.1824417801993894,0.1826283516672478,-0.0100714115107357,0.0121154978125402,-0.0362596968874829,-3.141621361285734,-3.141592653544477,-2.722713633277684,-2.2828910370992626,-2.2828545153061657,0.005075722745659,0.001,-0.0002171273945787,0.0005990250047511,0.0077961353620284,0.448
84,2222,0.085421762387188,0.085718567294645,-0.0175490123250767,0.0116821801285242,0.0029152657461658,-3.141612624821056,-3.14159265358702,-2.694597917469637,-1.800517525010174,0.5091652509713751,0.0064911456852845,0.001,0.0001830641803275,0.0010019409857887,0.0103107798448517,0.752
84,2223,0.169856811422793,-0.0156369811847941,0.362546970676074,-0.0568930336666309,-0.2359410924234535,-2.2509939799238103,-1.3613568165555772,0.2617993877991491,1.7802358370342164,-3.141592671523176,0.0162783244530808,0.001,0.001,0.001,0.0099951917254644,0.26
84,2224,-0.1279911402558901,-0.0828800874086492,0.0162905570899782,-0.0252790528475411,-0.0169323571823566,-3.1415928000565154,-3.141592650575181,-2.2912367473713107,-1.110186877584363,-1.11023535790702,0.0099672372201081,0.0009999999998265,0.0009999781668535,0.001,0.0044943792773988,0.22
84,2225,0.1642744167766714,0.1643129172378239,0.0451578138189675,0.0625394495879481,-0.0580532082435318,-3.141597263361333,-3.1415926400231187,-1.3626185003521991,0.0378505138986719,3.103770307301468,0.0091789203052719,0.0009999999968774,0.001,0.001,0.0177777846433438,0.312
84,2226,0.0793288501276653,0.1034727853873448,-0.0465477925411214,0.0269404463687473,0.0164125852707109,-3.14159590646319,-3.141592653578575,-2.308881407486074,-0.5299071945814107,-0.5299899568584845,0.0093937226603762,0.001,0.0009716029707164,0.001,0.0053896859197291,0.352
84,2228,0.1847623682882741,-0.0870290691302186,0.3375796692202587,-0.1072456839806282,-0.0005801175235524,-3.1415926750186967,-1.9570577186297076,0.2575075945565408,1.6480486051618586,3.0901566462654344,0.0099943662243317,0.001,0.001,0.001,0.0098544838659686,0.272
84,2229,0.0765843073190757,0.1691769059355122,-0.0145828682793839,0.0241009471675477,0.0383674869291937,-3.1415926543079555,-3.1415926535928604,-2.0362174606600423,0.0,3.0834782395282363,0.0099998168251011,0.0010000000001595,0.001,0.001,0.0098181427904447,0.268
84,2230,0.1327364379996546,0.1329272317182565,-0.1051511406036493,0.0753870321665732,0.0288325333006745,-3.1416121151357475,-3.141592653561401,-2.654077590912749,-1.654144702978666,0.0387308313105466,0.0064661604526586,0.001,0.0071686020395371,0.0010003308233825,0.0100172018314453,0.164
84,2231,-0.1685657418831519,-0.1687209837269763,0.0350541926407405,0.0336224482651509,0.09203062218676,-3.141613508382402,-3.141592653440818,-2.6430559274276657,-1.72039597520216,-1.7200070717838434,0.0061520324809893,0.000999999999993,-0.0003691813934013,0.0010011912276026,0.0082247939956727,0.764
84,2232,0.1182142692715546,-0.0313596639942297,0.3379590682882477,-0.090878005062574,-0.0824655783791139,-2.576223380210307,-2.077772916793805,-1.1469306513105595,-0.1495996501709432,1.2795198915432993,0.009715082878382,0.0010015114524284,0.001,0.001,0.011353791088468,0.244
84,2234,0.1376588352081607,0.0086269221722345,-0.0211760666843477,0.0035419420414981,-0.0239637033250636,-3.141592673714416,-3.141592653563144,-2.178846517812267,-1.216100382034759,-0.3546107048882069,0.0099947325260984,0.001,0.001000000008625,0.001,0.012842663871079,0.36
84,2235,0.1484811183878381,0.0963072493274702,-0.0223694772389536,0.0158384160529561,0.0155330510735392,-3.141592658664238,-3.1415925796048976,-2.103501168055766,-0.5736821367424838,3.087056028074725,0.0099987153168623,0.0009999999043681,0.001,0.001,0.0097360290193981,0.136
84,2237,0.1092088220441836,-0.0068759355944368,0.3861315587167825,-0.0602993341791917,0.0810398077574783,-3.141593124314851,-2.212389192666327,-0.7079645416540381,0.5752211900939059,-3.14159313502974,0.0099016777583598,0.0010000038915121,0.001,0.001,0.0099020871061516,0.216
84,2238,0.0824040932004825,0.125265969098453,-0.0199869812075586,-0.0047027481499748,-0.0012929901728639,-3.141593037996409,-3.1415926535874945,-2.3337545434665072,-1.0771174812307862,0.628344472874972,0.0099210764256504,0.001,0.0009993857884017,0.001,0.008140663682089,0.412
84,2240,0.1130305587869421,0.1130673592925016,-0.0488511868549965,0.0068411460855619,0.0446986571049815,-3.141595901279276,-3.141592652407984,-2.2550082118948245,-0.5589336622951167,0.5972480228447652,0.009400577188481,0.0009999999999444,0.0010067679498672,0.001,0.0127030461461213,0.288
84,2242,0.2663803882306611,-0.0584121843790634,0.3829455198356277,-0.0667289107469498,0.0167669460808946,-3.1415928668721578,-2.243994752558292,0.0236209973954122,1.3936388463293063,3.0944061426739418,0.0099482159425273,0.0010000110522146,0.001,0.001,0.0099309340829311,0.268
84,2244,-0.1112318817359308,-0.1112446167248276,0.0830142762236286,0.0824992001025687,-0.0302986354681767,-3.14159382744433,-3.141592649822963,-0.6114509191550606,0.0632535433608687,3.099463633533318,0.0097732785737072,0.0009999999997085,0.001,0.001,0.0103063045088333,0.136
84,2247,0.1528009411730955,-0.0740096271929937,0.3414072344550464,-0.1089864908320599,0.1528009411730955,-3.141601223730613,-2.4242826410462164,-0.990284640805478,0.0,-3.1416012237306137,0.0084879377350754,0.0092065756317264,0.001,0.001,0.0084879377350893,0.388
84,2248,0.1716519531325929,0.17176761378587,0.0534582621375065,0.0595244353805989,0.1726147661848261,-3.1416076549162377,-3.141592652667431,-2.0796456583863514,-1.430678344592535,3.112195299249237,0.0073172059342663,0.0009999999999791,0.0010637840959771,0.0010000000028449,0.036676664688273,0.48
84,2249,-0.1572303259063928,-0.1573076092683251,0.0780762147437153,-0.0065550399793766,-0.0456065523525456,-3.141601552612757,-3.141592651937521,-2.4960750707260053,-1.7491029368635085,-0.967775809652263,0.0084334167347707,0.0009999999999514,0.0089876368759487,0.0009999999906949,0.0114539440259183,0.372
84,2250,-0.0502357320543432,-0.0377358490566414,-0.0503144654077912,-0.037735849056225,-0.0376550743697022,-2.7755575615628914e-16,2.7755575615628914e-16,1.3877787807814454e-16,5.551115123125784e-16,0.0,0.0097656858089084,0.001,0.001,0.001,0.0098117375699449,0.368
84,2251,-0.0966198071264274,-0.0009173624832287,0.3731215434481547,-0.0903386979808908,-0.2055870284977344,-2.243814449137985,-1.525916431743614,-0.1795195802051316,1.121997376282069,-3.1415930867881268,0.0134918653182974,0.001,0.001,0.001,0.0098998765455559,0.268
84,2253,0.039369278812323,0.1702104046912617,-0.0050555903990902,0.0325299850647379,-0.0132029735374297,-3.141592653994122,-3.1415926535897927,-2.1433295674023736,-0.7340169751378021,3.082968664753885,0.0099998924309768,0.001,0.001,0.001,0.009705284280442,0.116
84,2254,-0.0734795511642745,-0.1643886531391755,0.0132357394990393,-0.0497995264894304,-0.0104222480397544,-3.141592654839735,-3.141592653590275,-1.9991953250116865,0.5140787978601478,3.084561983762618,0.0099996851429428,0.0010000000000416,0.001,0.001,0.0097457001060588,0.188
84,2255,-0.0958106309163291,-0.1243867598683472,0.0337857275791982,-0.0006105410709232,-0.0551426869220837,-3.141593072312111,-3.141592653550102,-1.9298354872051584,-0.9873576911282208,-0.987159438449816,0.0099148177962232,0.0010000000000416,0.0010000000000138,0.001,0.0145835740269325,0.252
84,2257,0.2450958824051803,-0.0223235511010758,0.3811811908593496,-0.0815550329536595,0.0324666462293952,-3.141592678024378,-2.1030496276096877,-0.2336721808455221,1.2202880555266136,3.08976127505558,0.0099936459707943,0.0009999999999167,0.001,0.001,0.0097741351181745,0.224
84,2258,-0.1513172929258777,-0.1513199602797155,0.003545130091754,-0.0157333013006028,0.0591187305907793,-3.141592994291697,-3.1415925370329214,-2.1251950303695595,-0.6929983794683365,3.095468662951069,0.009931958856697,0.0009999997806129,0.0009999999912986,0.001,0.0099400098046747,0.36
84,2259,-0.0483599363025609,-0.0606060606056501,-0.0484848484874621,-0.048484848484409,-0.0483599363002017,2.7755575615628914e-16,6.938893903907228e-16,6.938893903907228e-16,1.3877787807814454e-16,0.0,0.0096339668529229,0.001,0.001,0.001,0.0096339668529021,0.184
84,2260,0.1989460584289665,0.1989851155118122,-0.1259019324132122,0.0315920107885593,0.0195005800224778,-3.141598257321643,-3.1415925937282942,-2.430637540007408,-0.934997813568391,-0.9350774112404632,0.0090267154318934,0.0009999999429622,0.0110995001323864,0.001,0.0038770892872613,0.376
84,2262,-0.1094696851767283,-0.0591494100186813,0.3734930681857857,-0.0649634466621358,-0.2748783106954449,-2.385520805245412,-1.3936388463293068,0.1181049869770598,1.4408808411201308,-3.1415928854938,0.0137731199336171,0.001,0.001,0.001,0.0099449537022299,0.168
84,2263,0.1410705233951374,0.1068825617762229,-0.0107566403985244,0.0153171847977637,0.0722086609433901,-3.1415926623549297,-3.141592546277928,-1.9601390060859396,-0.8860902356278904,-0.8857795563980393,0.0099978759541163,0.0009999998035321,0.001,0.001,0.0177167198936078,0.152
84,2264,-0.1060639999106934,-0.1380644186139086,0.0697061210931392,0.0639291332730347,-0.0348845620851418,-3.141592700473583,-3.1415926536029004,-1.9854865570687488,-0.3769911184307752,3.091413088551851,0.0099896599555126,0.0010000000056621,0.001,0.001,0.0098183582771565,0.316
84,2265,0.1291621230917566,0.1129022400326123,-0.0225990652549502,0.0113495075522162,0.0461046811474681,-3.141592686406164,-3.1415925815105297,-1.7623568544528108,0.0255414036877215,3.090611257776086,0.0099925663591581,0.0009999999112584,0.001,0.001,0.0097694441058945,0.34
84,2266,-0.133346325698486,-0.134842140065439,0.050672499404669,0.0368797893833228,-0.0144683576759393,-3.141592664139718,-3.1415926990815013,-2.121246321654638,-0.9397926741507932,3.0879819789352445,0.0099976013351984,0.0009999962505756,0.0010000000000346,0.001,0.0097675681493863,0.152
84,2267,0.1310716149623064,0.1310728525902232,-0.0362581624437435,0.0905465428012451,0.0295382114335279,-3.1415928027700044,-3.1415925827139324,-2.182327721196021,0.071944869929537,3.093696970150709,0.0099688999388,0.000999999916074,0.0009999997657984,0.001,0.009894965094567,0.264
84,2268,0.1411611847408162,-0.0279082127751404,0.361173390202793,-0.0774473697899102,-0.2482121722303419,-2.1545908406162644,-1.3241423581246237,0.233672180845521,1.6876324172176576,-3.1415926784335912,0.0163165711675916,0.001,0.001,0.001,0.0099935416905571,0.26
84,2269,0.1284651146134675,0.1447255565393147,-0.0263054283478055,-0.0199908029358118,-0.0148794968689071,-3.141592690099785,-3.1415926625014543,-2.222102120831814,-1.047197551196598,3.090560948592345,0.0099919880620188,0.001000000292287,0.000999999931631,0.001,0.0098913892689938,0.34
84,2271,-0.13292152887833,-0.1329968386771437,0.0293902365081076,-0.0024069709742223,0.0800311062844119,-3.1416000953695185,-3.141592652660821,-2.4473184545110787,-1.7877571454129773,-1.7875222339798371,0.0086734055778397,0.0009999999999861,0.0007729407218358,0.0009999999953162,0.0114079101729874,0.38
84,2272,0.0949332471279504,0.1183457062685097,-0.0435222697702881,0.0094245930580729,0.0918407932386414,-3.141593726057563,-3.141592653554488,-2.382550178205137,-1.4548314972999714,-1.4544794765335718,0.0097907262646867,0.001,0.0009777993903438,0.001,0.0142056755356761,0.344
84,2273,-0.0855927913641087,-0.0322021268842048,0.3344067434162764,-0.1102809992663806,-0.1105273430513349,-2.536678401551996,-1.8983955607302916,-0.9575977607198832,0.08399980357192,0.0849162629277442,0.0099544896277167,0.0009999917262294,0.001,0.001,0.0099522605416065,0.252
84,2274,0.1817318676740782,0.1818387029748232,0.02891763595112,0.0781303069470786,0.064124035947817,-3.141607326585018,-3.1415926520244546,-2.0345552536458245,-0.8377580409572785,-0.8380288836112715,0.0073915724648595,0.0009999999999444,0.0009940406906207,0.001,0.0027775675640784,0.496
84,2275,0.1653792295490972,0.1654505743544385,-0.0126900604597117,0.0186866844339902,0.0218795850075094,-3.141601262707341,-3.141592650743985,-2.042893583589637,-1.287537972782702,-0.6694741431868083,0.0084903763453475,0.0009999999998612,0.000999900213092,0.001,0.0105953798221311,0.344
84,2277,0.2329714003774796,-0.0769756855353013,0.3581584532846733,-0.0709849752187208,-0.0793416906879196,-3.1415990792636337,-2.3295285144619484,-0.9530674342351056,0.1058963815816786,0.1052348835696422,0.0086606125516111,0.0096381807183136,0.001,0.001,0.0116892309153692,0.24
84,2279,0.1141683780341057,0.1142592600587894,-0.0102156365461824,0.0223841715312271,0.0802313638619344,-3.141600553723551,-3.1415926532926264,-2.4623299589822985,-1.5792871177505443,-0.8316054372317295,0.0085836600910129,0.001,0.0007947771340975,0.0010000000000763,0.0118147508088275,0.464
84,2281,-0.0965726766700379,-0.03880528082339,0.3637234364870894,-0.1110221316790827,0.0265821328975981,-2.533388789019896,-1.8241505730524503,-0.8782947203584368,0.0337805661676321,1.249889913283995,0.009995072910236,0.000999999173314,0.001,0.001,0.0099347140585137,0.268
84,2283,-0.0136469650716927,-0.0889162561375242,0.3588441582840074,-0.1123918763361953,0.0008702295525621,-2.924573756236568,-0.9811479322903642,-0.6402589699307226,-0.3513625218024846,0.5580465691195876,0.0089069737031665,0.0035232905376884,0.0568669728121866,0.0009251311183362,0.0100196455026898,1.068
84,2284,-0.0081229243719583,0.0261091986775479,0.4124282263401148,-0.0590788945886035,0.0476602425799395,-2.84368553485424,0.8124808758075006,1.7610676004050267,2.1664033054533456,0.433398669913513,0.0118715797230894,0.0009924926813651,0.0750872080334798,0.0042257899649848,0.011753426309009,1.464
84,2285,0.1450152141491134,0.1451580171027422,-0.140978778535195,-0.0389440518791279,-0.1068437309421662,-3.141608319180533,-3.141592653371366,-2.484294035401639,-1.7421559260488786,-1.7417047014377955,0.0071723188313885,0.001,0.008416097502301,0.0010000416022563,0.0094056873469996,0.392
84,2288,-0.2090495571731534,0.0227163839172931,0.3700199186826997,-0.0472103984149035,-0.0428230391845412,-3.141598830673604,-2.435617214508285,-1.129561403537903,-0.1411951754422383,-0.141508344061531,0.0087256661906908,0.0008172057514914,0.001,0.001,0.0080464897742226,0.228
84,2289,-0.1497637006141849,-0.1498700314065504,0.0610856523049853,0.0603943511749567,0.1196462742182474,-3.141604465918896,-3.141592652843975,-2.4469691526008304,-1.278738718295343,-1.2780651316864702,0.0079045698586116,0.000999999999993,0.0005626885328989,0.001,0.0107542762217871,0.448
84,2290,0.1419516212641002,0.1420048634195069,-0.0079456948797854,0.0102395585736121,-0.0722115481333755,-3.1415982343944053,-3.1415926504692537,-2.3379294735737126,-1.7169169153339567,-1.7167254087540404,0.0090018763253648,0.0009999999998404,0.0009790945526267,0.0009999999998751,0.0119873121844121,0.348
84,2291,0.158090671632122,0.1581222346663915,-0.0943614594643403,0.0036390836381994,-0.0685778016579007,-3.1415963223399035,-3.141592639900564,-2.404431521963786,-1.3962634015954636,-1.3960379423368026,0.0093388739995894,0.0009999999968219,0.0107276406267124,0.001,0.0129626612182975,0.376
84,2292,0.2558503249862586,-0.0291239490421604,0.3799824432747122,-0.1128098861484675,-0.0038999385226276,-3.141593246742451,-2.3394838927841133,-0.0668423968848892,1.225443942889636,3.097064333296149,0.0098629263171789,0.0009986940385221,0.001,0.001,0.0100332403168323,0.272
84,2294,0.1284671871144401,0.1286486244636127,-0.0226602852028402,0.0573230867040485,0.1171243082845505,-3.141610469866017,-3.1415926535398286,-2.66036411406376,-1.5908490458503146,-1.5902715534678729,0.0067690446174145,0.001,0.0003731118522119,0.0010000160189431,0.0088944405711413,0.12
84,2295,-0.163612372784794,-0.163752137011375,0.0246644202049607,0.0213619294846137,0.0372981292702891,-3.1416102766263942,-3.141592653361922,-2.540592319859563,-1.5025008343256605,1.147708468045297,0.0067869859546845,0.001,-0.0001749256005819,0.0009999997029459,0.0169710788024035,0.716
84,2296,-0.1025606478737256,-0.1026006209735558,0.3349594025405888,-0.076279152677773,0.0286067388882119,-3.1415959287274133,-3.14159265299718,-1.2642994825422338,-0.1915605276579147,3.1033052899531475,0.0093935730848437,0.0009999999999861,0.001,0.001,0.0123753146411314,0.204
84,2297,-0.1665209393510527,-0.1668788435614878,0.0138068356796049,-0.0003376809145034,0.0793745826871347,-3.1416368958730394,-3.1415926535841474,-2.824146812466359,-2.4532690840273705,-0.3700472712391857,0.0042640955755135,0.001,-2.5692193845628728e-05,0.0005695531615352,0.0063202185041602,0.452
84,2298,-0.0079438814192822,-0.0500465911865587,0.321407160766216,-0.0716412272799921,-0.0268378772850252,-2.8073825862728654,0.3843437820880744,0.9357935529855989,1.3868901221166543,1.9718842061578516,0.0108582391634384,0.0010000001321373,0.0010027272121227,0.0054467756023999,0.0151107378087611,0.972
84,2300,0.0418703361503809,-0.0123916789913364,0.3505747264854181,-0.0677404970068478,-0.0616890025292431,-2.748907486158486,0.3391492069216247,0.8924979127859517,1.4279967437237675,1.4280774383161972,0.0174195407471777,0.001000000000673,0.0010002138545313,0.0009639150585137,0.0172460718978303,0.908
84,2303,0.0184620170342117,-0.0205730521071653,0.4665711864293382,-0.090039843286817,0.0723851802721792,-2.9022372565637493,-2.6479733345898877,-2.228694221941422,-1.7947595233301912,1.4212458368842134,0.0137152966164271,-2.47514654705492e-06,0.0816708552609572,0.0048477455604618,0.0154179805763706,0.244
84,2304,-0.1455328259505407,0.0845788597483082,0.4555665502825746,-0.0842008572531601,0.0929098607582442,-3.1417788043303085,-1.091013348317794,-0.0038915275537505,0.2316966401587802,1.5379125842565096,0.0046196754709998,0.0001918103926583,0.0608664113107897,0.0030747136077817,0.007484313729118,1.436
84,2305,-0.0139548819240466,-0.0546253806694708,0.429988320628322,-0.1303670007646546,0.0157881230558434,-2.896906854991356,-0.3102272942088938,-0.0126420450514745,0.2306153342078127,2.7308700887574395,0.0101906449168531,0.0008374396817033,0.0593796564610912,0.0030728315177562,0.0102102699187128,1.432
84,2306,0.0788143008362571,-0.0373527768775475,0.4135722224273969,-0.0895829497978365,0.1115965934448264,-1.091185616646853,-0.2550590175879079,0.0091502233335465,0.255199859577096,2.1032295063670485,0.0089517812509359,0.0029269368461659,0.0585354318794047,0.0008342796637754,0.0190739271070838,1.444
84,2307,0.009929028061986,-0.0830674621892447,0.431831364624483,-0.1760598234417298,0.0206547236696686,-2.9993989982372167,-0.2971763227720324,-0.0218090431342968,0.2263535621714829,1.684108267189682,0.0101664488342225,0.0031129331980243,0.0565473398518407,0.0351778503358432,0.0102461097776684,1.408
84,2308,0.0145344017363596,-0.0784960096335741,0.4746684363918592,-0.1549501778602677,0.0476235769364064,-1.064983724556566,-0.6014340167151792,0.0137770308819926,0.2628276854410967,2.4553489777922985,0.0090888156729765,0.0164453950273088,0.0573740667717024,0.0337463023799754,0.0111145834081342,1.42
